1,1,131882
1,2,132956
1,3,134259
1,4,135183
1,5,136137
1,6,137121
1,7,138206
1,8,139116
1,9,140525
1,10,141295
1,11,142736
1,12,143937
1,13,144970
1,14,146131
1,15,147168
1,16,148554
1,17,149830
1,18,151165
1,19,152196
1,20,153215
1,21,154354
1,22,155379
1,23,156764
1,24,157828
1,25,159007
1,26,160155
1,27,161371
1,28,162645
1,29,163768
1,30,164790
1,31,166188
1,32,167435
1,33,168632
1,34,169804
1,35,170891
1,36,172173
1,37,173746
1,38,174958
1,39,175964
1,40,176899
1,41,178031
1,42,179621
1,43,180921
1,44,182337
1,45,183572
1,46,184992
1,47,186384
1,48,187459
1,49,188599
1,50,189864
1,51,190967
1,52,192480
1,53,193667
1,54,194941
1,55,196419
1,56,198123
1,57,199706
1,58,201033
1,59,202384
1,60,203675
1,61,205571
1,62,206957
1,63,208794
1,64,210015
1,65,211768
1,66,213468
1,67,215393
1,68,216755
1,69,217870
1,70,219772
1,71,221052
1,72,222210
1,73,223433
1,74,224195
1,75,224426
1,76,224366
1,77,223794
1,78,222498
1,79,220322
1,80,217084
1,81,213181
1,82,207408
1,83,200788
1,84,193280
1,85,185295
1,86,177923
1,87,170101
1,88,163026
1,89,155761
1,90,149474
1,91,143873
1,92,139056
1,93,135663
1,94,133211
1,95,132886
1,96,133586
1,97,138179
1,98,148635
1,99,166498
1,100,198174
1,101,252453
1,102,329933
1,103,422229
1,104,518164
1,105,610510
1,106,663751
1,107,665877
1,108,614113
1,109,513487
1,110,399673
1,111,289837
1,112,203023
1,113,141255
1,114,118213
1,115,104916
1,116,97732
1,117,94041
1,118,91425
1,119,88915
1,120,86463
1,121,83981
1,122,81587
1,123,79099
1,124,76803
1,125,75303
1,126,74039
1,127,72836
1,128,72148
1,129,71585
1,130,70974
1,131,70636
1,132,70325
1,133,70057
1,134,70153
1,135,69797
1,136,69594
1,137,69321
1,138,69316
1,139,69104
1,140,69011
1,141,68933
1,142,68815
1,143,68801
1,144,68617
1,145,68677
1,146,68559
1,147,68606
1,148,68440
1,149,68507
1,150,68495
1,151,68497
1,152,68386
1,153,68408
1,154,68508
1,155,68416
1,156,68407
1,157,68418
1,158,68467
1,159,68494
1,160,68506
1,161,68523
1,162,68570
1,163,68639
1,164,68659
1,165,68728
1,166,68817
1,167,68841
1,168,68819
1,169,68973
1,170,69004
1,171,69107
1,172,69140
1,173,69288
1,174,69418
1,175,69435
1,176,69590
1,177,69715
1,178,69784
1,179,69978
1,180,70083
1,181,70107
1,182,70177
1,183,70311
1,184,70359
1,185,70558
1,186,70657
1,187,70779
1,188,70854
1,189,71129
1,190,71393
1,191,71798
1,192,72157
1,193,72918
1,194,73813
1,195,74871
1,196,76278
1,197,77934
1,198,80069
1,199,82509
1,200,85714
1,201,89965
1,202,95121
1,203,100681
1,204,106758
1,205,112781
1,206,118746
1,207,125225
1,208,132554
1,209,141467
1,210,151693
1,211,162420
1,212,173433
1,213,184005
1,214,194207
1,215,202372
1,216,210754
1,217,220342
1,218,230875
1,219,242833
1,220,255105
1,221,267537
1,222,279353
1,223,288661
1,224,296856
1,225,304612
1,226,311732
1,227,319345
1,228,328129
1,229,338276
1,230,348979
1,231,358267
1,232,366986
1,233,374373
1,234,380893
1,235,386491
1,236,391812
1,237,397822
1,238,404856
1,239,412294
1,240,421020
1,241,429140
1,242,436942
1,243,442014
1,244,447931
1,245,452153
1,246,456568
1,247,461398
1,248,466341
1,249,472994
1,250,479810
1,251,486323
1,252,491604
1,253,497799
1,254,502983
1,255,506400
1,256,510702
1,257,514330
1,258,518816
1,259,523893
1,260,529846
1,261,535240
1,262,540099
1,263,544005
1,264,549117
1,265,553936
1,266,557168
1,267,560217
1,268,564134
1,269,567569
1,270,571636
1,271,575637
1,272,580053
1,273,584174
1,274,586577
1,275,590726
1,276,593206
1,277,596370
1,278,598648
1,279,601387
1,280,605292
1,281,608022
1,282,610613
1,283,612626
1,284,615536
1,285,619281
1,286,620669
1,287,622792
1,288,623942
1,289,627042
1,290,629273
1,291,632151
1,292,634678
1,293,636461
1,294,639149
1,295,641409
1,296,642628
1,297,644658
1,298,646972
1,299,649467
1,300,650500
1,301,652509
1,302,654544
1,303,655247
1,304,656734
1,305,660069
1,306,661030
1,307,662194
1,308,663071
1,309,664717
1,310,666877
1,311,667585
1,312,670523
1,313,671017
1,314,673190
1,315,674502
1,316,676478
1,317,677718
1,318,678439
1,319,680572
1,320,681310
1,321,682962
1,322,684385
1,323,686617
1,324,687650
1,325,688834
1,326,690111
1,327,691537
1,328,693220
1,329,695390
1,330,696194
1,331,697050
1,332,699194
1,333,700078
1,334,701701
1,335,702089
1,336,702906
1,337,704520
1,338,706461
1,339,708040
1,340,708773
1,341,711629
1,342,713323
1,343,713482
1,344,715643
1,345,715883
1,346,717121
1,347,718493
1,348,719389
1,349,721215
1,350,722133
1,351,722815
1,352,725745
1,353,726071
1,354,728299
1,355,728156
1,356,730100
1,357,731163
1,358,732606
1,359,733624
1,360,735317
1,361,736644
1,362,738065
1,363,738354
1,364,741051
1,365,741898
1,366,743509
1,367,743925
1,368,746904
1,369,746985
1,370,747597
1,371,750008
1,372,750892
1,373,752700
1,374,753349
1,375,754254
1,376,756691
1,377,758407
1,378,759650
1,379,761164
1,380,762352
1,381,763070
1,382,763616
1,383,765552
1,384,767490
1,385,767991
1,386,768806
1,387,770643
1,388,771067
1,389,772562
1,390,773329
1,391,775759
1,392,777136
1,393,777962
1,394,779390
1,395,780624
1,396,782595
1,397,783604
1,398,784792
1,399,786058
1,400,787535
1,401,790096
1,402,790857
1,403,793280
1,404,794307
1,405,797326
1,406,796761
1,407,799172
1,408,799102
1,409,802139
1,410,802158
1,411,803951
1,412,805011
1,413,805956
1,414,808442
1,415,809810
1,416,811550
1,417,812601
1,418,812916
1,419,814473
1,420,816431
1,421,818507
1,422,819958
1,423,821275
1,424,823167
1,425,824643
1,426,825992
1,427,826165
1,428,827014
1,429,828695
1,430,830555
1,431,832957
1,432,833367
1,433,834856
1,434,836835
1,435,836971
1,436,838414
1,437,839867
1,438,840999
1,439,841760
1,440,844061
1,441,845553
1,442,847246
1,443,849021
1,444,850830
1,445,851841
1,446,852606
1,447,854412
1,448,855575
1,449,856928
1,450,857293
1,451,859847
1,452,861232
1,453,863050
1,454,864257
1,455,865784
1,456,866973
1,457,869684
1,458,869035
1,459,871803
1,460,872681
1,461,874957
1,462,875668
1,463,876156
1,464,878956
1,465,879050
1,466,882344
1,467,882903
1,468,884235
1,469,885090
1,470,886721
1,471,888840
1,472,890844
1,473,892686
1,474,894712
1,475,896376
1,476,897411
1,477,898303
1,478,899554
1,479,901045
1,480,902771
1,481,904094
1,482,905329
1,483,907286
1,484,908967
1,485,909043
1,486,910086
1,487,911456
1,488,911692
1,489,913798
1,490,914273
1,491,916718
1,492,917399
1,493,917723
1,494,919799
1,495,922088
1,496,922296
1,497,924381
1,498,924715
1,499,927325
1,500,928380
1,501,929119
1,502,930771
1,503,930980
1,504,933066
1,505,933517
1,506,935996
1,507,936697
1,508,938613
1,509,940085
1,510,940870
1,511,941289
1,512,941932
1,513,942543
1,514,944136
1,515,945240
1,516,946864
1,517,948052
1,518,949734
1,519,951113
1,520,951946
1,521,953316
1,522,954123
1,523,956480
1,524,957803
1,525,958226
1,526,960437
1,527,961609
1,528,964136
1,529,964564
1,530,965450
1,531,967769
1,532,968136
1,533,968953
1,534,972472
1,535,973592
1,536,974951
1,537,974983
1,538,976383
1,539,977021
1,540,979789
1,541,980383
1,542,982404
1,543,983479
1,544,984452
1,545,987599
1,546,987615
1,547,989493
1,548,991719
1,549,992717
1,550,992546
1,551,993871
1,552,995378
1,553,995973
1,554,997544
1,555,999059
1,556,998754
1,557,1.00021e+006
1,558,1.00077e+006
1,559,1.00362e+006
1,560,1.00445e+006
1,561,1.00499e+006
1,562,1.00641e+006
1,563,1.0066e+006
1,564,1.00714e+006
1,565,1.00823e+006
1,566,1.00952e+006
1,567,1.0091e+006
1,568,1.01013e+006
1,569,1.00992e+006
1,570,1.01059e+006
1,571,1.0127e+006
1,572,1.01341e+006
1,573,1.0148e+006
1,574,1.01445e+006
1,575,1.0142e+006
1,576,1.01583e+006
1,577,1.01616e+006
1,578,1.01821e+006
1,579,1.01773e+006
1,580,1.01738e+006
1,581,1.01871e+006
1,582,1.01857e+006
1,583,1.01919e+006
1,584,1.02098e+006
1,585,1.02147e+006
1,586,1.02332e+006
1,587,1.02235e+006
1,588,1.02378e+006
1,589,1.02401e+006
1,590,1.02477e+006
1,591,1.0253e+006
1,592,1.02555e+006
1,593,1.02624e+006
1,594,1.02623e+006
1,595,1.02847e+006
1,596,1.02905e+006
1,597,1.02977e+006
1,598,1.02896e+006
1,599,1.03024e+006
1,600,1.03024e+006
1,601,1.03181e+006
1,602,1.0317e+006
1,603,1.03113e+006
1,604,1.03249e+006
1,605,1.03234e+006
1,606,1.03387e+006
1,607,1.03286e+006
1,608,1.03298e+006
1,609,1.03536e+006
1,610,1.03446e+006
1,611,1.03516e+006
1,612,1.0364e+006
1,613,1.03638e+006
1,614,1.03668e+006
1,615,1.03659e+006
1,616,1.03535e+006
1,617,1.03648e+006
1,618,1.03747e+006
1,619,1.0381e+006
1,620,1.03943e+006
1,621,1.03949e+006
1,622,1.04003e+006
1,623,1.03928e+006
1,624,1.0387e+006
1,625,1.03966e+006
1,626,1.03897e+006
1,627,1.03876e+006
1,628,1.03896e+006
1,629,1.03919e+006
1,630,1.03901e+006
1,631,1.03807e+006
1,632,1.03942e+006
1,633,1.03812e+006
1,634,1.03855e+006
1,635,1.03811e+006
1,636,1.03864e+006
1,637,1.03877e+006
1,638,1.0392e+006
1,639,1.03852e+006
1,640,1.03968e+006
1,641,1.03939e+006
1,642,1.0381e+006
1,643,1.03898e+006
1,644,1.03984e+006
1,645,1.0405e+006
1,646,1.04075e+006
1,647,1.04179e+006
1,648,1.04078e+006
1,649,1.03945e+006
1,650,1.0415e+006
1,651,1.0416e+006
1,652,1.0417e+006
1,653,1.04014e+006
1,654,1.04058e+006
1,655,1.03975e+006
1,656,1.03964e+006
1,657,1.04056e+006
1,658,1.03981e+006
1,659,1.04023e+006
1,660,1.04059e+006
1,661,1.03849e+006
1,662,1.03914e+006
1,663,1.03862e+006
1,664,1.03878e+006
1,665,1.03801e+006
1,666,1.03737e+006
1,667,1.03749e+006
1,668,1.03759e+006
1,669,1.03716e+006
1,670,1.03598e+006
1,671,1.03669e+006
1,672,1.036e+006
1,673,1.03638e+006
1,674,1.03772e+006
1,675,1.03713e+006
1,676,1.03757e+006
1,677,1.0383e+006
1,678,1.03986e+006
1,679,1.03681e+006
1,680,1.03803e+006
1,681,1.03812e+006
1,682,1.03851e+006
1,683,1.036e+006
1,684,1.03537e+006
1,685,1.03704e+006
1,686,1.03621e+006
1,687,1.03589e+006
1,688,1.03458e+006
1,689,1.03597e+006
1,690,1.03534e+006
1,691,1.03494e+006
1,692,1.03238e+006
1,693,1.03031e+006
1,694,1.02848e+006
1,695,1.02775e+006
1,696,1.02639e+006
1,697,1.02488e+006
1,698,1.02478e+006
1,699,1.02314e+006
1,700,1.02234e+006
1,701,1.02131e+006
1,702,1.01937e+006
1,703,1.0185e+006
1,704,1.01904e+006
1,705,1.0173e+006
1,706,1.01725e+006
1,707,1.01687e+006
1,708,1.01594e+006
1,709,1.01491e+006
1,710,1.01493e+006
1,711,1.01366e+006
1,712,1.01091e+006
1,713,1.01181e+006
1,714,1.01028e+006
1,715,1.0093e+006
1,716,1.00759e+006
1,717,1.00486e+006
1,718,1.00407e+006
1,719,1.00317e+006
1,720,1.00207e+006
1,721,1.00079e+006
1,722,1.00071e+006
1,723,1.0001e+006
1,724,998581
1,725,998078
1,726,997593
1,727,996393
1,728,995964
1,729,995048
1,730,993883
1,731,994424
1,732,993486
1,733,992159
1,734,993334
1,735,990985
1,736,990925
1,737,989621
1,738,989060
1,739,988195
1,740,988287
1,741,988077
1,742,987396
1,743,986424
1,744,985910
1,745,984757
1,746,984065
1,747,983704
1,748,982409
1,749,983127
1,750,981654
1,751,980495
1,752,981405
1,753,980032
1,754,980338
1,755,979439
1,756,979192
1,757,978259
1,758,977507
1,759,977791
1,760,977224
1,761,977468
1,762,976565
1,763,976948
1,764,975574
1,765,975753
1,766,974327
1,767,975391
1,768,973508
1,769,972533
1,770,971226
1,771,970820
1,772,971484
1,773,971653
1,774,970134
1,775,972166
1,776,970426
1,777,971558
1,778,971271
1,779,970695
1,780,970058
1,781,970601
1,782,971030
1,783,970821
1,784,970567
1,785,970169
1,786,970154
1,787,970732
1,788,970783
1,789,971539
1,790,971564
1,791,971288
1,792,972934
1,793,972914
1,794,972100
1,795,971486
1,796,973771
1,797,973704
1,798,973705
1,799,975428
1,800,976275
1,801,976557
1,802,974974
1,803,975299
1,804,974854
1,805,974213
1,806,973786
1,807,972808
1,808,971855
1,809,972887
1,810,970947
1,811,970500
1,812,969220
1,813,968674
1,814,967771
1,815,967521
1,816,967446
1,817,967843
1,818,968982
1,819,969043
1,820,970989
1,821,971891
1,822,972508
1,823,974140
1,824,975378
1,825,975025
1,826,975953
1,827,974810
1,828,975397
1,829,972162
1,830,971026
1,831,969724
1,832,967154
1,833,964666
1,834,964184
1,835,962327
1,836,960919
1,837,960218
1,838,959763
1,839,958866
1,840,958265
1,841,956927
1,842,955271
1,843,954706
1,844,953005
1,845,951543
1,846,950681
1,847,949830
1,848,949182
1,849,949595
1,850,949280
1,851,947908
1,852,948426
1,853,947940
1,854,948122
1,855,946763
1,856,946344
1,857,947135
1,858,945140
1,859,945704
1,860,944843
1,861,945361
1,862,944945
1,863,945407
1,864,943279
1,865,944526
1,866,944191
1,867,943438
1,868,944416
1,869,943524
1,870,941842
1,871,941890
1,872,940504
1,873,940414
1,874,939361
1,875,939084
1,876,939211
1,877,939326
1,878,939029
1,879,938215
1,880,938275
1,881,937309
1,882,937165
1,883,936805
1,884,936509
1,885,935789
1,886,937119
1,887,936124
1,888,936563
1,889,935663
1,890,936519
1,891,937095
1,892,935710
1,893,935841
1,894,936071
1,895,935601
1,896,934964
1,897,934371
1,898,936310
1,899,935373
1,900,933649
1,901,934937
1,902,936410
1,903,935996
1,904,936294
1,905,937103
1,906,938964
1,907,939218
1,908,940220
1,909,943420
1,910,945247
1,911,948438
1,912,952383
1,913,956058
1,914,960553
1,915,962514
1,916,965180
1,917,965676
1,918,965743
1,919,964304
1,920,962603
1,921,961006
1,922,958312
1,923,955559
1,924,953646
1,925,952803
1,926,950649
1,927,949108
1,928,947889
1,929,946053
1,930,944022
1,931,942189
1,932,939416
1,933,938311
1,934,934101
1,935,931815
1,936,930418
1,937,928856
1,938,927175
1,939,925193
1,940,923235
1,941,921628
1,942,919852
1,943,918024
1,944,917451
1,945,916328
1,946,915312
1,947,914495
1,948,912210
1,949,912460
1,950,911069
1,951,911301
1,952,909731
1,953,909158
1,954,909056
1,955,908929
1,956,907631
1,957,905784
1,958,906151
1,959,905474
1,960,904974
1,961,905470
1,962,905437
1,963,904300
1,964,902756
1,965,902933
1,966,902396
1,967,901819
1,968,901685
1,969,900399
1,970,899670
1,971,898216
1,972,898556
1,973,897087
1,974,896960
1,975,895738
1,976,895402
1,977,894990
1,978,893177
1,979,893926
1,980,893688
1,981,892847
1,982,892314
1,983,893041
1,984,891701
1,985,891015
1,986,890864
1,987,889144
1,988,888173
1,989,888357
1,990,888462
1,991,886719
1,992,886672
1,993,885522
1,994,885063
1,995,884614
1,996,884887
1,997,883509
1,998,881393
1,999,882299
1,1000,880571
1,1001,879648
1,1002,879677
1,1003,879138
1,1004,877665
1,1005,877321
1,1006,876518
1,1007,876081
1,1008,875875
1,1009,874493
1,1010,875400
1,1011,874373
1,1012,873114
1,1013,873210
1,1014,871532
1,1015,871059
1,1016,870943
1,1017,870985
1,1018,869605
1,1019,868801
1,1020,867607
1,1021,866025
1,1022,867416
1,1023,865908
1,1024,865428
1,1025,863427
1,1026,863669
1,1027,862911
1,1028,861848
1,1029,860843
1,1030,860827
1,1031,859520
1,1032,858834
1,1033,858655
1,1034,858380
1,1035,857944
1,1036,857031
1,1037,856400
1,1038,855092
1,1039,854384
1,1040,854883
1,1041,853284
1,1042,853111
1,1043,852596
1,1044,851609
1,1045,851939
1,1046,850246
1,1047,849672
1,1048,850200
1,1049,849489
1,1050,848323
1,1051,847079
1,1052,846987
1,1053,847145
1,1054,846426
1,1055,845718
1,1056,846691
1,1057,846986
1,1058,847229
1,1059,846992
1,1060,848202
1,1061,849562
1,1062,852760
1,1063,855545
1,1064,858263
1,1065,861598
1,1066,864166
1,1067,867263
1,1068,869665
1,1069,871597
1,1070,871713
1,1071,869029
1,1072,866818
1,1073,861990
1,1074,856184
1,1075,851058
1,1076,843445
1,1077,838601
1,1078,834206
1,1079,831409
1,1080,828095
1,1081,825589
1,1082,824539
1,1083,821445
1,1084,820637
1,1085,818157
1,1086,816861
1,1087,816949
1,1088,815480
1,1089,814233
1,1090,812464
1,1091,811725
1,1092,812022
1,1093,810886
1,1094,808072
1,1095,808311
1,1096,806396
1,1097,806316
1,1098,805169
1,1099,803771
1,1100,803386
1,1101,801715
1,1102,800627
1,1103,799577
1,1104,799329
1,1105,797450
1,1106,796859
1,1107,796006
1,1108,794755
1,1109,794054
1,1110,793013
1,1111,791832
1,1112,791260
1,1113,790343
1,1114,788843
1,1115,788102
1,1116,787056
1,1117,786659
1,1118,785831
1,1119,785147
1,1120,784047
1,1121,782642
1,1122,782774
1,1123,782071
1,1124,780672
1,1125,780218
1,1126,779410
1,1127,779506
1,1128,778968
1,1129,778615
1,1130,777630
1,1131,777166
1,1132,776983
1,1133,776755
1,1134,776282
1,1135,776541
1,1136,775606
1,1137,774107
1,1138,772827
1,1139,772591
1,1140,771465
1,1141,769454
1,1142,768390
1,1143,766774
1,1144,766163
1,1145,763030
1,1146,761506
1,1147,760401
1,1148,759022
1,1149,756504
1,1150,755722
1,1151,752870
1,1152,751276
1,1153,750842
1,1154,749771
1,1155,748250
1,1156,746339
1,1157,744981
1,1158,745142
1,1159,743862
1,1160,742454
1,1161,740685
1,1162,740350
1,1163,739378
1,1164,739004
1,1165,737555
1,1166,736724
1,1167,736215
1,1168,734740
1,1169,733921
1,1170,731980
1,1171,731429
1,1172,730313
1,1173,729436
1,1174,729071
1,1175,726725
1,1176,726355
1,1177,724750
1,1178,722956
1,1179,721808
1,1180,720295
1,1181,719228
1,1182,717763
1,1183,717642
1,1184,716787
1,1185,715959
1,1186,714388
1,1187,713609
1,1188,712726
1,1189,711717
1,1190,710440
1,1191,708545
1,1192,707926
1,1193,706843
1,1194,706324
1,1195,704958
1,1196,703727
1,1197,703018
1,1198,701641
1,1199,700540
1,1200,699615
1,1201,698784
1,1202,697420
1,1203,697029
1,1204,695362
1,1205,694299
1,1206,692882
1,1207,692062
1,1208,691198
1,1209,689970
1,1210,688695
1,1211,687525
1,1212,686975
1,1213,684608
1,1214,683951
1,1215,682714
1,1216,681826
1,1217,681831
1,1218,680283
1,1219,678279
1,1220,677114
1,1221,676682
1,1222,675667
1,1223,674835
1,1224,673623
1,1225,672427
1,1226,670948
1,1227,669010
1,1228,668034
1,1229,667499
1,1230,665515
1,1231,664041
1,1232,662973
1,1233,662156
1,1234,659815
1,1235,658935
1,1236,658226
1,1237,657459
1,1238,655409
1,1239,653802
1,1240,652244
1,1241,650806
1,1242,649622
1,1243,648111
1,1244,647059
1,1245,644699
1,1246,643266
1,1247,642102
1,1248,639836
1,1249,638927
1,1250,637207
1,1251,634941
1,1252,633511
1,1253,631208
1,1254,629529
1,1255,627517
1,1256,625089
1,1257,623690
1,1258,621958
1,1259,619732
1,1260,618156
1,1261,617429
1,1262,614877
1,1263,613527
1,1264,611564
1,1265,609813
1,1266,608630
1,1267,606243
1,1268,604207
1,1269,601983
1,1270,599683
1,1271,598146
1,1272,596021
1,1273,592936
1,1274,590644
1,1275,588013
1,1276,585490
1,1277,583590
1,1278,580636
1,1279,578967
1,1280,575063
1,1281,572354
1,1282,569879
1,1283,566770
1,1284,564335
1,1285,561463
1,1286,559110
1,1287,556658
1,1288,553462
1,1289,551305
1,1290,548343
1,1291,545973
1,1292,541976
1,1293,540365
1,1294,537262
1,1295,534582
1,1296,530704
1,1297,528298
1,1298,526273
1,1299,522812
1,1300,519976
1,1301,516768
1,1302,513893
1,1303,510442
1,1304,508435
1,1305,505616
1,1306,501990
1,1307,499476
1,1308,496631
1,1309,492823
1,1310,489850
1,1311,487344
1,1312,484027
1,1313,481202
1,1314,478328
1,1315,475363
1,1316,472260
1,1317,469473
1,1318,466779
1,1319,463671
1,1320,460439
1,1321,458148
1,1322,454548
1,1323,450803
1,1324,448485
1,1325,445540
1,1326,442675
1,1327,439927
1,1328,437093
1,1329,433752
1,1330,431092
1,1331,427664
1,1332,424940
1,1333,421906
1,1334,419155
1,1335,416403
1,1336,412890
1,1337,410473
1,1338,407139
1,1339,403721
1,1340,405490
