1,1,61773
1,2,61747
1,3,61791
1,4,61760
1,5,61732
1,6,61727
1,7,61757
1,8,61775
1,9,61758
1,10,61757
1,11,61735
1,12,61714
1,13,61718
1,14,61703
1,15,61773
1,16,61728
1,17,61753
1,18,61749
1,19,61743
1,20,61757
1,21,61734
1,22,61741
1,23,61787
1,24,61758
1,25,61753
1,26,61736
1,27,61737
1,28,61755
1,29,61751
1,30,61760
1,31,61735
1,32,61728
1,33,61740
1,34,61746
1,35,61723
1,36,61718
1,37,61740
1,38,61745
1,39,61735
1,40,61742
1,41,61760
1,42,61728
1,43,61764
1,44,61809
1,45,61749
1,46,61728
1,47,61764
1,48,61757
1,49,61735
1,50,61750
1,51,61757
1,52,61750
1,53,61778
1,54,61750
1,55,61759
1,56,61795
1,57,61737
1,58,61740
1,59,61772
1,60,61726
1,61,61708
1,62,61756
1,63,61755
1,64,61765
1,65,61740
1,66,61756
1,67,61749
1,68,61835
1,69,61771
1,70,61772
1,71,61788
1,72,61798
1,73,61774
1,74,61824
1,75,61740
1,76,61756
1,77,61778
1,78,61730
1,79,61780
1,80,61748
1,81,61763
1,82,61809
1,83,61747
1,84,61754
1,85,61728
1,86,61772
1,87,61816
1,88,61786
1,89,61800
1,90,61794
1,91,61736
1,92,61784
1,93,61782
1,94,61733
1,95,61785
1,96,61768
1,97,61788
1,98,61775
1,99,61804
1,100,61744
1,101,61772
1,102,61769
1,103,61756
1,104,61793
1,105,61800
1,106,61724
1,107,61759
1,108,61743
1,109,61759
1,110,61730
1,111,61764
1,112,61747
1,113,61714
1,114,61762
1,115,61707
1,116,61751
1,117,61739
1,118,61736
1,119,61753
1,120,61746
1,121,61752
1,122,61757
1,123,61767
1,124,61737
1,125,61752
1,126,61764
1,127,61732
1,128,61752
1,129,61759
1,130,61747
1,131,61794
1,132,61736
1,133,61761
1,134,61803
1,135,61779
1,136,61755
1,137,61815
1,138,61789
1,139,61718
1,140,61762
1,141,61795
1,142,61742
1,143,61743
1,144,61767
1,145,61744
1,146,61729
1,147,61745
1,148,61760
1,149,61779
1,150,61762
1,151,61748
1,152,61746
1,153,61775
1,154,61770
1,155,61769
1,156,61727
1,157,61791
1,158,61743
1,159,61739
1,160,61754
1,161,61737
1,162,61736
1,163,61758
1,164,61724
1,165,61765
1,166,61789
1,167,61771
1,168,61767
1,169,61776
1,170,61748
1,171,61765
1,172,61727
1,173,61717
1,174,61750
1,175,61756
1,176,61770
1,177,61778
1,178,61731
1,179,61785
1,180,61759
1,181,61723
1,182,61760
1,183,61778
1,184,61758
1,185,61740
1,186,61715
1,187,61750
1,188,61717
1,189,61783
1,190,61783
1,191,61748
1,192,61772
1,193,61749
1,194,61746
1,195,61733
1,196,61713
1,197,61764
1,198,61781
1,199,61768
1,200,61730
1,201,61746
1,202,61776
1,203,61768
1,204,61730
1,205,61753
1,206,61737
1,207,61792
1,208,61763
1,209,61751
1,210,61773
1,211,61770
1,212,61733
1,213,61762
1,214,61713
1,215,61771
1,216,61720
1,217,61710
1,218,61722
1,219,61786
1,220,61798
1,221,61770
1,222,61791
1,223,61753
1,224,61833
1,225,61776
1,226,61788
1,227,61776
1,228,61724
1,229,61776
1,230,61755
1,231,61743
1,232,61803
1,233,61737
1,234,61778
1,235,61727
1,236,61786
1,237,61794
1,238,61782
1,239,61749
1,240,61739
1,241,61809
1,242,61764
1,243,61752
1,244,61753
1,245,61756
1,246,61713
1,247,61758
1,248,61758
1,249,61739
1,250,61751
1,251,61718
1,252,61741
1,253,61786
1,254,61753
1,255,61748
1,256,61765
1,257,61762
1,258,61788
1,259,61774
1,260,61756
1,261,61786
1,262,61764
1,263,61759
1,264,61768
1,265,61728
1,266,61777
1,267,61776
1,268,61771
1,269,61788
1,270,61777
1,271,61739
1,272,61715
1,273,61778
1,274,61721
1,275,61714
1,276,61776
1,277,61726
1,278,61774
1,279,61753
1,280,61712
1,281,61758
1,282,61781
1,283,61742
1,284,61784
1,285,61782
1,286,61768
1,287,61784
1,288,61756
1,289,61754
1,290,61794
1,291,61748
1,292,61764
1,293,61753
1,294,61732
1,295,61743
1,296,61718
1,297,61731
1,298,61784
1,299,61735
1,300,61731
1,301,61739
1,302,61772
1,303,61745
1,304,61729
1,305,61809
1,306,61720
1,307,61711
1,308,61710
1,309,61739
1,310,61761
1,311,61744
1,312,61780
1,313,61749
1,314,61769
1,315,61762
1,316,61746
1,317,61727
1,318,61731
1,319,61743
1,320,61767
1,321,61724
1,322,61719
1,323,61772
1,324,61781
1,325,61769
1,326,61764
1,327,61787
1,328,61712
1,329,61744
1,330,61759
1,331,61761
1,332,61740
1,333,61757
1,334,61759
1,335,61787
1,336,61804
1,337,61810
1,338,61778
1,339,61748
1,340,61733
1,341,61803
1,342,61784
1,343,61753
1,344,61704
1,345,61750
1,346,61736
1,347,61747
1,348,61702
1,349,61794
1,350,61732
1,351,61761
1,352,61771
1,353,61762
1,354,61770
1,355,61805
1,356,61770
1,357,61780
1,358,61773
1,359,61770
1,360,61746
1,361,61733
1,362,61765
1,363,61771
1,364,61808
1,365,61756
1,366,61724
1,367,61777
1,368,61755
1,369,61793
1,370,61768
1,371,61793
1,372,61763
1,373,61732
1,374,61790
1,375,61718
1,376,61753
1,377,61734
1,378,61717
1,379,61763
1,380,61762
1,381,61762
1,382,61694
1,383,61741
1,384,61737
1,385,61746
1,386,61785
1,387,61714
1,388,61750
1,389,61743
1,390,61782
1,391,61752
1,392,61711
1,393,61738
1,394,61764
1,395,61741
1,396,61778
1,397,61737
1,398,61747
1,399,61750
1,400,61789
1,401,61817
1,402,61756
1,403,61772
1,404,61762
1,405,61788
1,406,61801
1,407,61765
1,408,61760
1,409,61713
1,410,61744
1,411,61782
1,412,61769
1,413,61763
1,414,61740
1,415,61793
1,416,61768
1,417,61758
1,418,61765
1,419,61752
1,420,61753
1,421,61744
1,422,61793
1,423,61714
1,424,61766
1,425,61780
1,426,61761
1,427,61723
1,428,61768
1,429,61766
1,430,61788
1,431,61725
1,432,61830
1,433,61763
1,434,61707
1,435,61746
1,436,61738
1,437,61749
1,438,61765
1,439,61771
1,440,61746
1,441,61727
1,442,61748
1,443,61762
1,444,61771
1,445,61776
1,446,61776
1,447,61768
1,448,61707
1,449,61792
1,450,61777
1,451,61769
1,452,61767
1,453,61747
1,454,61763
1,455,61779
1,456,61774
1,457,61737
1,458,61774
1,459,61813
1,460,61819
1,461,61777
1,462,61773
1,463,61739
1,464,61742
1,465,61766
1,466,61746
1,467,61788
1,468,61764
1,469,61710
1,470,61759
1,471,61826
1,472,61785
1,473,61792
1,474,61780
1,475,61733
1,476,61735
1,477,61785
1,478,61767
1,479,61780
1,480,61758
1,481,61746
1,482,61762
1,483,61723
1,484,61770
1,485,61748
1,486,61744
1,487,61764
1,488,61752
1,489,61762
1,490,61756
1,491,61713
1,492,61738
1,493,61752
1,494,61763
1,495,61764
1,496,61806
1,497,61768
1,498,61764
1,499,61706
1,500,61763
1,501,61763
1,502,61751
1,503,61762
1,504,61772
1,505,61762
1,506,61746
1,507,61741
1,508,61812
1,509,61791
1,510,61750
1,511,61756
1,512,61808
1,513,61756
1,514,61774
1,515,61741
1,516,61758
1,517,61757
1,518,61790
1,519,61831
1,520,61723
1,521,61731
1,522,61780
1,523,61808
1,524,61765
1,525,61740
1,526,61770
1,527,61765
1,528,61756
1,529,61759
1,530,61735
1,531,61783
1,532,61758
1,533,61745
1,534,61746
1,535,61787
1,536,61789
1,537,61734
1,538,61719
1,539,61759
1,540,61780
1,541,61769
1,542,61713
1,543,61738
1,544,61739
1,545,61697
1,546,61764
1,547,61742
1,548,61783
1,549,61703
1,550,61748
1,551,61796
1,552,61756
1,553,61753
1,554,61751
1,555,61785
1,556,61741
1,557,61750
1,558,61805
1,559,61758
1,560,61746
1,561,61717
1,562,61773
1,563,61735
1,564,61775
1,565,61736
1,566,61774
1,567,61810
1,568,61745
1,569,61765
1,570,61724
1,571,61801
1,572,61762
1,573,61778
1,574,61804
1,575,61763
1,576,61774
1,577,61796
1,578,61795
1,579,61775
1,580,61787
1,581,61742
1,582,61769
1,583,61706
1,584,61724
1,585,61732
1,586,61766
1,587,61756
1,588,61773
1,589,61785
1,590,61753
1,591,61767
1,592,61781
1,593,61734
1,594,61748
1,595,61758
1,596,61737
1,597,61808
1,598,61742
1,599,61752
1,600,61770
1,601,61768
1,602,61785
1,603,61746
1,604,61750
1,605,61711
1,606,61714
1,607,61746
1,608,61763
1,609,61738
1,610,61785
1,611,61789
1,612,61778
1,613,61751
1,614,61763
1,615,61767
1,616,61755
1,617,61769
1,618,61721
1,619,61755
1,620,61796
1,621,61710
1,622,61772
1,623,61788
1,624,61775
1,625,61771
1,626,61742
1,627,61751
1,628,61760
1,629,61733
1,630,61758
1,631,61751
1,632,61784
1,633,61771
1,634,61806
1,635,61752
1,636,61739
1,637,61725
1,638,61762
1,639,61745
1,640,61759
1,641,61749
1,642,61761
1,643,61810
1,644,61770
1,645,61725
1,646,61712
1,647,61699
1,648,61800
1,649,61771
1,650,61769
1,651,61735
1,652,61747
1,653,61767
1,654,61752
1,655,61784
1,656,61787
1,657,61779
1,658,61743
1,659,61770
1,660,61762
1,661,61802
1,662,61719
1,663,61773
1,664,61745
1,665,61781
1,666,61762
1,667,61697
1,668,61771
1,669,61739
1,670,61796
1,671,61783
1,672,61761
1,673,61807
1,674,61795
1,675,61752
1,676,61803
1,677,61759
1,678,61744
1,679,61784
1,680,61731
1,681,61931
1,682,61739
1,683,61740
1,684,61729
1,685,61771
1,686,61748
1,687,61767
1,688,61775
1,689,61744
1,690,61740
1,691,61762
1,692,61744
1,693,61756
1,694,61736
1,695,61792
1,696,61755
1,697,61755
1,698,61777
1,699,61744
1,700,61791
1,701,61749
1,702,61736
1,703,61720
1,704,61760
1,705,61735
1,706,61754
1,707,61757
1,708,61780
1,709,61778
1,710,61763
1,711,61741
1,712,61768
1,713,61786
1,714,61757
1,715,61778
1,716,61735
1,717,61749
1,718,61782
1,719,61768
1,720,61760
1,721,61743
1,722,61734
1,723,61726
1,724,61779
1,725,61788
1,726,61759
1,727,61777
1,728,61767
1,729,61775
1,730,61776
1,731,61734
1,732,61804
1,733,61762
1,734,61758
1,735,61772
1,736,61711
1,737,61797
1,738,61769
1,739,61773
1,740,61802
1,741,61789
1,742,61719
1,743,61776
1,744,61768
1,745,61761
1,746,61792
1,747,61731
1,748,61757
1,749,61761
1,750,61790
1,751,61736
1,752,61751
1,753,61713
1,754,61701
1,755,61773
1,756,61815
1,757,61753
1,758,61770
1,759,61786
1,760,61775
1,761,61728
1,762,61797
1,763,61768
1,764,61784
1,765,61759
1,766,61739
1,767,61768
1,768,61730
1,769,61779
1,770,61740
1,771,61771
1,772,61744
1,773,61790
1,774,61790
1,775,61735
1,776,61745
1,777,61776
1,778,61764
1,779,61754
1,780,61742
1,781,61748
1,782,61797
1,783,61748
1,784,61762
1,785,61763
1,786,61792
1,787,61758
1,788,61749
1,789,61749
1,790,61772
1,791,61746
1,792,61803
1,793,61762
1,794,61718
1,795,61776
1,796,61791
1,797,61780
1,798,61793
1,799,61798
1,800,61784
1,801,61797
1,802,61803
1,803,61779
1,804,61773
1,805,61706
1,806,61740
1,807,61788
1,808,61765
1,809,61753
1,810,61744
1,811,61815
1,812,61763
1,813,61791
1,814,61758
1,815,61802
1,816,61777
1,817,61755
1,818,61753
1,819,61790
1,820,61766
1,821,61767
1,822,61776
1,823,61792
1,824,61812
1,825,61786
1,826,61752
1,827,61763
1,828,61780
1,829,61712
1,830,61773
1,831,61791
1,832,61794
1,833,61732
1,834,61753
1,835,61780
1,836,61805
1,837,61739
1,838,61763
1,839,61753
1,840,61764
1,841,61742
1,842,61782
1,843,61750
1,844,61749
1,845,61773
1,846,61744
1,847,61757
1,848,61750
1,849,61755
1,850,61803
1,851,61775
1,852,61749
1,853,61788
1,854,61787
1,855,61731
1,856,61785
1,857,61771
1,858,61751
1,859,61748
1,860,61754
1,861,61732
1,862,61780
1,863,61740
1,864,61786
1,865,61730
1,866,61782
1,867,61764
1,868,61718
1,869,61784
1,870,61796
1,871,61803
1,872,61774
1,873,61715
1,874,61749
1,875,61752
1,876,61788
1,877,61801
1,878,61786
1,879,61790
1,880,61740
1,881,61749
1,882,61757
1,883,61757
1,884,61787
1,885,61789
1,886,61786
1,887,61755
1,888,61746
1,889,61744
1,890,61752
1,891,61778
1,892,61757
1,893,61766
1,894,61779
1,895,61692
1,896,61744
1,897,61739
1,898,61798
1,899,61801
1,900,61798
1,901,61730
1,902,61741
1,903,61778
1,904,61747
1,905,61769
1,906,61777
1,907,61787
1,908,61789
1,909,61812
1,910,61728
1,911,61803
1,912,61761
1,913,61786
1,914,61755
1,915,61740
1,916,61749
1,917,61752
1,918,61747
1,919,61754
1,920,61752
1,921,61761
1,922,61757
1,923,61752
1,924,61758
1,925,61767
1,926,61782
1,927,61737
1,928,61765
1,929,61761
1,930,61768
1,931,61773
1,932,61760
1,933,61777
1,934,61746
1,935,61762
1,936,61838
1,937,61753
1,938,61754
1,939,61775
1,940,61789
1,941,61780
1,942,61793
1,943,61814
1,944,61792
1,945,61763
1,946,61804
1,947,61755
1,948,61735
1,949,61733
1,950,61736
1,951,61754
1,952,61756
1,953,61779
1,954,61759
1,955,61806
1,956,61739
1,957,61783
1,958,61782
1,959,61765
1,960,61755
1,961,61772
1,962,61761
1,963,61772
1,964,61778
1,965,61766
1,966,61754
1,967,61741
1,968,61734
1,969,61739
1,970,61767
1,971,61772
1,972,61766
1,973,61760
1,974,61737
1,975,61749
1,976,61774
1,977,61785
1,978,61796
1,979,61771
1,980,61779
1,981,61796
1,982,61801
1,983,61748
1,984,61742
1,985,61766
1,986,61719
1,987,61761
1,988,61722
1,989,61756
1,990,61769
1,991,61783
1,992,61767
1,993,61750
1,994,61784
1,995,61795
1,996,61768
1,997,61769
1,998,61726
1,999,61793
1,1000,61764
1,1001,61755
1,1002,61772
1,1003,61733
1,1004,61770
1,1005,61809
1,1006,61756
1,1007,61762
1,1008,61775
1,1009,61748
1,1010,61799
1,1011,61759
1,1012,61792
1,1013,61734
1,1014,61763
1,1015,61761
1,1016,61788
1,1017,61786
1,1018,61748
1,1019,61752
1,1020,61801
1,1021,61726
1,1022,61749
1,1023,61778
1,1024,61710
1,1025,61768
1,1026,61814
1,1027,61744
1,1028,61749
1,1029,61815
1,1030,61754
1,1031,61747
1,1032,61744
1,1033,61729
1,1034,61805
1,1035,61754
1,1036,61795
1,1037,61774
1,1038,61788
1,1039,61744
1,1040,61790
1,1041,61781
1,1042,61764
1,1043,61765
1,1044,61765
1,1045,61786
1,1046,61771
1,1047,61806
1,1048,61766
1,1049,61774
1,1050,61753
1,1051,61760
1,1052,61783
1,1053,61745
1,1054,61812
1,1055,61753
1,1056,61808
1,1057,61743
1,1058,61790
1,1059,61727
1,1060,61772
1,1061,61748
1,1062,61782
1,1063,61778
1,1064,61741
1,1065,61728
1,1066,61794
1,1067,61746
1,1068,61778
1,1069,61788
1,1070,61734
1,1071,61766
1,1072,61774
1,1073,61729
1,1074,61761
1,1075,61782
1,1076,61774
1,1077,61744
1,1078,61742
1,1079,61754
1,1080,61782
1,1081,61769
1,1082,61741
1,1083,61772
1,1084,61787
1,1085,61746
1,1086,61797
1,1087,61726
1,1088,61786
1,1089,61764
1,1090,61732
1,1091,61789
1,1092,61798
1,1093,61753
1,1094,61771
1,1095,61775
1,1096,61778
1,1097,61784
1,1098,61775
1,1099,61791
1,1100,61808
1,1101,61792
1,1102,61768
1,1103,61827
1,1104,61774
1,1105,61750
1,1106,61763
1,1107,61814
1,1108,61781
1,1109,61705
1,1110,61770
1,1111,61769
1,1112,61724
1,1113,61755
1,1114,61745
1,1115,61787
1,1116,61771
1,1117,61748
1,1118,61748
1,1119,61753
1,1120,61773
1,1121,61762
1,1122,61767
1,1123,61759
1,1124,61774
1,1125,61823
1,1126,61765
1,1127,61697
1,1128,61766
1,1129,61744
1,1130,61753
1,1131,61779
1,1132,61776
1,1133,61769
1,1134,61787
1,1135,61797
1,1136,61766
1,1137,61776
1,1138,61771
1,1139,61755
1,1140,61807
1,1141,61741
1,1142,61767
1,1143,61781
1,1144,61803
1,1145,61811
1,1146,61880
1,1147,61787
1,1148,61798
1,1149,61784
1,1150,61775
1,1151,61831
1,1152,61805
1,1153,61800
1,1154,61751
1,1155,61800
1,1156,61775
1,1157,61795
1,1158,61810
1,1159,61783
1,1160,61817
1,1161,61823
1,1162,61741
1,1163,61756
1,1164,61820
1,1165,61810
1,1166,61787
1,1167,61783
1,1168,61759
1,1169,61846
1,1170,61760
1,1171,61792
1,1172,61792
1,1173,61793
1,1174,61730
1,1175,61781
1,1176,61789
1,1177,61785
1,1178,61723
1,1179,61798
1,1180,61736
1,1181,61788
1,1182,61775
1,1183,61810
1,1184,61762
1,1185,61795
1,1186,61749
1,1187,61772
1,1188,61790
1,1189,61767
1,1190,61765
1,1191,61759
1,1192,61723
1,1193,61726
1,1194,61774
1,1195,61764
1,1196,61770
1,1197,61770
1,1198,61792
1,1199,61810
1,1200,61767
1,1201,61758
1,1202,61743
1,1203,61716
1,1204,61802
1,1205,61772
1,1206,61771
1,1207,61779
1,1208,61760
1,1209,61806
1,1210,61777
1,1211,61859
1,1212,61821
1,1213,61851
1,1214,61798
1,1215,61840
1,1216,61789
1,1217,61802
1,1218,61788
1,1219,61785
1,1220,61757
1,1221,61746
1,1222,61829
1,1223,61809
1,1224,61799
1,1225,61766
1,1226,61781
1,1227,61862
1,1228,61801
1,1229,61773
1,1230,61825
1,1231,61774
1,1232,61794
1,1233,61838
1,1234,61794
1,1235,61814
1,1236,61778
1,1237,61752
1,1238,61779
1,1239,61781
1,1240,61848
1,1241,61842
1,1242,61834
1,1243,61865
1,1244,61822
1,1245,61819
1,1246,61839
1,1247,61867
1,1248,61825
1,1249,61825
1,1250,61825
1,1251,61870
1,1252,61861
1,1253,61888
1,1254,61821
1,1255,61825
1,1256,61864
1,1257,61867
1,1258,61839
1,1259,61825
1,1260,61866
1,1261,61817
1,1262,61833
1,1263,61838
1,1264,61851
1,1265,61824
1,1266,61858
1,1267,61866
1,1268,61889
1,1269,61878
1,1270,61866
1,1271,61837
1,1272,61865
1,1273,61851
1,1274,61879
1,1275,61848
1,1276,61880
1,1277,61841
1,1278,61829
1,1279,61910
1,1280,61903
1,1281,61872
1,1282,61849
1,1283,61856
1,1284,61855
1,1285,61881
1,1286,61871
1,1287,61874
1,1288,61799
1,1289,61863
1,1290,61851
1,1291,61880
1,1292,61884
1,1293,61866
1,1294,61891
1,1295,61867
1,1296,61894
1,1297,61885
1,1298,61867
1,1299,61834
1,1300,61826
1,1301,61844
1,1302,61872
1,1303,61793
1,1304,61906
1,1305,61851
1,1306,61806
1,1307,61868
1,1308,61864
1,1309,61859
1,1310,61852
1,1311,61859
1,1312,61851
1,1313,61835
1,1314,61888
1,1315,61843
1,1316,61851
1,1317,61890
1,1318,61890
1,1319,61889
1,1320,61875
1,1321,61897
1,1322,61936
1,1323,61833
1,1324,61835
1,1325,61853
1,1326,61886
1,1327,61871
1,1328,61859
1,1329,61846
1,1330,61810
1,1331,61873
1,1332,61820
1,1333,61817
1,1334,61759
1,1335,61772
1,1336,61737
1,1337,61734
1,1338,61707
1,1339,61403
1,1340,70211
