1,1,63678
1,2,63660
1,3,63735
1,4,63711
1,5,63714
1,6,63702
1,7,63744
1,8,63809
1,9,63782
1,10,63807
1,11,63804
1,12,63754
1,13,63779
1,14,63780
1,15,63835
1,16,63856
1,17,63842
1,18,63827
1,19,63861
1,20,63821
1,21,63843
1,22,63872
1,23,63857
1,24,63918
1,25,63926
1,26,63956
1,27,63873
1,28,63928
1,29,63975
1,30,63885
1,31,63928
1,32,63990
1,33,63948
1,34,63932
1,35,63961
1,36,63964
1,37,63924
1,38,64013
1,39,64066
1,40,64023
1,41,63947
1,42,64042
1,43,64040
1,44,64010
1,45,64089
1,46,64072
1,47,64022
1,48,64020
1,49,64059
1,50,64086
1,51,64094
1,52,64087
1,53,64111
1,54,64083
1,55,64047
1,56,64098
1,57,64138
1,58,64084
1,59,64092
1,60,64131
1,61,64058
1,62,64125
1,63,64145
1,64,64128
1,65,64077
1,66,64114
1,67,64085
1,68,64112
1,69,64171
1,70,64134
1,71,64101
1,72,64115
1,73,64090
1,74,64102
1,75,64100
1,76,64019
1,77,63977
1,78,63929
1,79,63875
1,80,63783
1,81,63744
1,82,63662
1,83,63542
1,84,63451
1,85,63354
1,86,63309
1,87,63181
1,88,63021
1,89,62994
1,90,62967
1,91,62827
1,92,62721
1,93,62734
1,94,62649
1,95,62635
1,96,62607
1,97,62561
1,98,62596
1,99,62554
1,100,62498
1,101,62486
1,102,62498
1,103,62458
1,104,62449
1,105,62467
1,106,62460
1,107,62473
1,108,62469
1,109,62483
1,110,62428
1,111,62455
1,112,62425
1,113,62408
1,114,62445
1,115,62442
1,116,62417
1,117,62416
1,118,62386
1,119,62451
1,120,62454
1,121,62429
1,122,62384
1,123,62465
1,124,62411
1,125,62420
1,126,62459
1,127,62437
1,128,62397
1,129,62457
1,130,62421
1,131,62409
1,132,62389
1,133,62418
1,134,62444
1,135,62413
1,136,62405
1,137,62390
1,138,62407
1,139,62461
1,140,62445
1,141,62372
1,142,62379
1,143,62444
1,144,62410
1,145,62385
1,146,62431
1,147,62409
1,148,62434
1,149,62415
1,150,62417
1,151,62422
1,152,62406
1,153,62405
1,154,62431
1,155,62453
1,156,62404
1,157,62422
1,158,62436
1,159,62394
1,160,62439
1,161,62422
1,162,62409
1,163,62417
1,164,62415
1,165,62423
1,166,62411
1,167,62420
1,168,62427
1,169,62398
1,170,62404
1,171,62412
1,172,62431
1,173,62405
1,174,62431
1,175,62468
1,176,62394
1,177,62453
1,178,62445
1,179,62419
1,180,62430
1,181,62415
1,182,62436
1,183,62432
1,184,62441
1,185,62405
1,186,62420
1,187,62453
1,188,62442
1,189,62439
1,190,62412
1,191,62414
1,192,62485
1,193,62434
1,194,62439
1,195,62456
1,196,62490
1,197,62480
1,198,62502
1,199,62488
1,200,62560
1,201,62559
1,202,62592
1,203,62640
1,204,62690
1,205,62695
1,206,62800
1,207,62790
1,208,62823
1,209,62917
1,210,62968
1,211,63017
1,212,63099
1,213,63114
1,214,63233
1,215,63301
1,216,63306
1,217,63339
1,218,63381
1,219,63523
1,220,63530
1,221,63597
1,222,63708
1,223,63721
1,224,63797
1,225,63827
1,226,63840
1,227,63901
1,228,63956
1,229,64017
1,230,64113
1,231,64081
1,232,64070
1,233,64159
1,234,64193
1,235,64251
1,236,64164
1,237,64265
1,238,64261
1,239,64344
1,240,64327
1,241,64441
1,242,64418
1,243,64482
1,244,64466
1,245,64506
1,246,64518
1,247,64540
1,248,64589
1,249,64553
1,250,64609
1,251,64641
1,252,64649
1,253,64684
1,254,64740
1,255,64759
1,256,64736
1,257,64768
1,258,64791
1,259,64832
1,260,64803
1,261,64837
1,262,64932
1,263,64939
1,264,64964
1,265,64926
1,266,64954
1,267,64936
1,268,64947
1,269,65002
1,270,64969
1,271,64985
1,272,64987
1,273,65035
1,274,65073
1,275,65065
1,276,65071
1,277,65072
1,278,65024
1,279,65048
1,280,65119
1,281,65153
1,282,65122
1,283,65109
1,284,65169
1,285,65089
1,286,65094
1,287,65151
1,288,65121
1,289,65129
1,290,65167
1,291,65124
1,292,65145
1,293,65121
1,294,65066
1,295,65174
1,296,65140
1,297,65137
1,298,65218
1,299,65193
1,300,65186
1,301,65140
1,302,65144
1,303,65174
1,304,65136
1,305,65185
1,306,65176
1,307,65268
1,308,65188
1,309,65157
1,310,65175
1,311,65154
1,312,65236
1,313,65143
1,314,65183
1,315,65121
1,316,65198
1,317,65179
1,318,65161
1,319,65129
1,320,65195
1,321,65183
1,322,65185
1,323,65130
1,324,65177
1,325,65104
1,326,65180
1,327,65159
1,328,65203
1,329,65249
1,330,65175
1,331,65168
1,332,65084
1,333,65203
1,334,65212
1,335,65191
1,336,65241
1,337,65180
1,338,65238
1,339,65201
1,340,65146
1,341,65157
1,342,65148
1,343,65136
1,344,65177
1,345,65182
1,346,65178
1,347,65116
1,348,65150
1,349,65169
1,350,65155
1,351,65139
1,352,65150
1,353,65174
1,354,65115
1,355,65137
1,356,65162
1,357,65130
1,358,65063
1,359,65161
1,360,65112
1,361,65138
1,362,65113
1,363,65085
1,364,65141
1,365,65069
1,366,65101
1,367,65131
1,368,65152
1,369,65095
1,370,65151
1,371,65120
1,372,65095
1,373,65087
1,374,65123
1,375,65165
1,376,65112
1,377,65092
1,378,65093
1,379,65096
1,380,65121
1,381,65141
1,382,65126
1,383,65139
1,384,65138
1,385,65100
1,386,65113
1,387,65121
1,388,65121
1,389,65112
1,390,65166
1,391,65071
1,392,65064
1,393,65072
1,394,65094
1,395,65095
1,396,65119
1,397,65131
1,398,65104
1,399,65060
1,400,65089
1,401,65092
1,402,65098
1,403,65108
1,404,65078
1,405,65143
1,406,65088
1,407,65066
1,408,65066
1,409,65019
1,410,65049
1,411,65043
1,412,65048
1,413,65105
1,414,65041
1,415,65089
1,416,65024
1,417,65096
1,418,65075
1,419,65061
1,420,65089
1,421,65117
1,422,65038
1,423,64995
1,424,65067
1,425,65011
1,426,65020
1,427,65014
1,428,65084
1,429,65069
1,430,65055
1,431,65013
1,432,65049
1,433,65126
1,434,65030
1,435,64993
1,436,65054
1,437,64968
1,438,64926
1,439,65069
1,440,65035
1,441,65053
1,442,64989
1,443,65036
1,444,64999
1,445,65016
1,446,64982
1,447,64978
1,448,64958
1,449,64946
1,450,65000
1,451,64967
1,452,65006
1,453,65004
1,454,64987
1,455,64955
1,456,64951
1,457,64963
1,458,65008
1,459,65008
1,460,64950
1,461,64964
1,462,64953
1,463,65029
1,464,65002
1,465,64945
1,466,64954
1,467,64934
1,468,64914
1,469,64946
1,470,64959
1,471,64987
1,472,64977
1,473,64970
1,474,64975
1,475,64959
1,476,64964
1,477,65023
1,478,64921
1,479,64892
1,480,64896
1,481,64884
1,482,64940
1,483,64933
1,484,64996
1,485,64962
1,486,64856
1,487,64895
1,488,64915
1,489,64881
1,490,64920
1,491,64987
1,492,64906
1,493,64880
1,494,64848
1,495,64884
1,496,64893
1,497,64949
1,498,64936
1,499,64864
1,500,64904
1,501,64879
1,502,64863
1,503,64842
1,504,64875
1,505,64913
1,506,64900
1,507,64887
1,508,64909
1,509,64908
1,510,64851
1,511,64840
1,512,64891
1,513,64855
1,514,64889
1,515,64930
1,516,64800
1,517,64838
1,518,64822
1,519,64831
1,520,64878
1,521,64841
1,522,64876
1,523,64844
1,524,64880
1,525,64832
1,526,64825
1,527,64791
1,528,64839
1,529,64814
1,530,64793
1,531,64736
1,532,64749
1,533,64783
1,534,64801
1,535,64868
1,536,64847
1,537,64799
1,538,64796
1,539,64808
1,540,64810
1,541,64801
1,542,64822
1,543,64869
1,544,64791
1,545,64815
1,546,64780
1,547,64810
1,548,64795
1,549,64758
1,550,64799
1,551,64791
1,552,64729
1,553,64751
1,554,64778
1,555,64779
1,556,64769
1,557,64769
1,558,64709
1,559,64785
1,560,64788
1,561,64803
1,562,64741
1,563,64813
1,564,64766
1,565,64772
1,566,64735
1,567,64769
1,568,64736
1,569,64751
1,570,64742
1,571,64684
1,572,64724
1,573,64668
1,574,64762
1,575,64687
1,576,64805
1,577,64716
1,578,64684
1,579,64680
1,580,64671
1,581,64633
1,582,64737
1,583,64669
1,584,64759
1,585,64723
1,586,64685
1,587,64647
1,588,64672
1,589,64720
1,590,64651
1,591,64717
1,592,64654
1,593,64624
1,594,64718
1,595,64646
1,596,64665
1,597,64643
1,598,64578
1,599,64650
1,600,64594
1,601,64671
1,602,64632
1,603,64640
1,604,64621
1,605,64599
1,606,64698
1,607,64666
1,608,64631
1,609,64576
1,610,64660
1,611,64638
1,612,64623
1,613,64574
1,614,64613
1,615,64658
1,616,64643
1,617,64636
1,618,64578
1,619,64566
1,620,64567
1,621,64604
1,622,64571
1,623,64592
1,624,64568
1,625,64582
1,626,64533
1,627,64570
1,628,64561
1,629,64587
1,630,64674
1,631,64571
1,632,64580
1,633,64541
1,634,64520
1,635,64546
1,636,64599
1,637,64605
1,638,64572
1,639,64554
1,640,64579
1,641,64561
1,642,64600
1,643,64573
1,644,64567
1,645,64529
1,646,64462
1,647,64574
1,648,64567
1,649,64487
1,650,64520
1,651,64528
1,652,64543
1,653,64471
1,654,64527
1,655,64526
1,656,64544
1,657,64533
1,658,64508
1,659,64523
1,660,64465
1,661,64526
1,662,64476
1,663,64484
1,664,64507
1,665,64497
1,666,64530
1,667,64479
1,668,64487
1,669,64433
1,670,64498
1,671,64397
1,672,64447
1,673,64434
1,674,64497
1,675,64510
1,676,64503
1,677,64466
1,678,64459
1,679,64461
1,680,64451
1,681,64442
1,682,64458
1,683,64436
1,684,64441
1,685,64427
1,686,64462
1,687,64377
1,688,64364
1,689,64428
1,690,64427
1,691,64484
1,692,64416
1,693,64416
1,694,64445
1,695,64376
1,696,64391
1,697,64400
1,698,64399
1,699,64348
1,700,64469
1,701,64371
1,702,64403
1,703,64371
1,704,64418
1,705,64424
1,706,64377
1,707,64397
1,708,64372
1,709,64384
1,710,64371
1,711,64374
1,712,64348
1,713,64351
1,714,64385
1,715,64371
1,716,64332
1,717,64386
1,718,64322
1,719,64320
1,720,64324
1,721,64333
1,722,64358
1,723,64326
1,724,64324
1,725,64350
1,726,64341
1,727,64292
1,728,64342
1,729,64343
1,730,64337
1,731,64343
1,732,64302
1,733,64302
1,734,64317
1,735,64294
1,736,64305
1,737,64323
1,738,64254
1,739,64314
1,740,64269
1,741,64310
1,742,64273
1,743,64275
1,744,64282
1,745,64309
1,746,64251
1,747,64243
1,748,64234
1,749,64253
1,750,64255
1,751,64260
1,752,64237
1,753,64214
1,754,64212
1,755,64187
1,756,64207
1,757,64240
1,758,64241
1,759,64195
1,760,64208
1,761,64235
1,762,64216
1,763,64225
1,764,64195
1,765,64213
1,766,64228
1,767,64172
1,768,64184
1,769,64153
1,770,64189
1,771,64202
1,772,64197
1,773,64229
1,774,64220
1,775,64172
1,776,64228
1,777,64201
1,778,64185
1,779,64151
1,780,64213
1,781,64153
1,782,64135
1,783,64151
1,784,64163
1,785,64158
1,786,64160
1,787,64118
1,788,64168
1,789,64134
1,790,64109
1,791,64141
1,792,64147
1,793,64138
1,794,64093
1,795,64084
1,796,64110
1,797,64110
1,798,64159
1,799,64154
1,800,64110
1,801,64104
1,802,64066
1,803,64087
1,804,64112
1,805,64105
1,806,64150
1,807,64107
1,808,64131
1,809,64064
1,810,64065
1,811,64050
1,812,64073
1,813,64109
1,814,64102
1,815,64107
1,816,64035
1,817,64079
1,818,64093
1,819,64058
1,820,64045
1,821,64051
1,822,64016
1,823,64016
1,824,64014
1,825,64044
1,826,64033
1,827,64043
1,828,64023
1,829,64037
1,830,64019
1,831,64049
1,832,64023
1,833,63994
1,834,63991
1,835,64099
1,836,64078
1,837,64016
1,838,63960
1,839,64015
1,840,64021
1,841,63985
1,842,63970
1,843,63955
1,844,63998
1,845,64016
1,846,64000
1,847,63976
1,848,64022
1,849,64011
1,850,64006
1,851,63983
1,852,63975
1,853,63991
1,854,63983
1,855,63934
1,856,63927
1,857,63976
1,858,63983
1,859,63947
1,860,63953
1,861,63932
1,862,63936
1,863,63940
1,864,63955
1,865,63909
1,866,63916
1,867,63882
1,868,63922
1,869,63977
1,870,63897
1,871,63949
1,872,63867
1,873,63870
1,874,63951
1,875,63890
1,876,63891
1,877,63886
1,878,63907
1,879,63883
1,880,63859
1,881,63885
1,882,63905
1,883,63902
1,884,63922
1,885,63904
1,886,63836
1,887,63897
1,888,63842
1,889,63842
1,890,63889
1,891,63861
1,892,63867
1,893,63872
1,894,63884
1,895,63849
1,896,63841
1,897,63840
1,898,63840
1,899,63809
1,900,63841
1,901,63833
1,902,63819
1,903,63880
1,904,63830
1,905,63770
1,906,63829
1,907,63821
1,908,63821
1,909,63795
1,910,63788
1,911,63784
1,912,63780
1,913,63771
1,914,63791
1,915,63776
1,916,63798
1,917,63788
1,918,63778
1,919,63745
1,920,63781
1,921,63796
1,922,63765
1,923,63756
1,924,63785
1,925,63763
1,926,63786
1,927,63787
1,928,63748
1,929,63772
1,930,63727
1,931,63751
1,932,63704
1,933,63706
1,934,63747
1,935,63689
1,936,63742
1,937,63802
1,938,63757
1,939,63736
1,940,63654
1,941,63727
1,942,63679
1,943,63733
1,944,63684
1,945,63717
1,946,63696
1,947,63675
1,948,63699
1,949,63678
1,950,63696
1,951,63704
1,952,63724
1,953,63711
1,954,63658
1,955,63686
1,956,63691
1,957,63711
1,958,63640
1,959,63662
1,960,63620
1,961,63681
1,962,63653
1,963,63677
1,964,63682
1,965,63656
1,966,63655
1,967,63643
1,968,63618
1,969,63674
1,970,63625
1,971,63639
1,972,63660
1,973,63653
1,974,63640
1,975,63651
1,976,63619
1,977,63620
1,978,63590
1,979,63596
1,980,63596
1,981,63565
1,982,63605
1,983,63600
1,984,63587
1,985,63621
1,986,63583
1,987,63598
1,988,63558
1,989,63607
1,990,63599
1,991,63594
1,992,63522
1,993,63553
1,994,63591
1,995,63552
1,996,63585
1,997,63536
1,998,63605
1,999,63585
1,1000,63585
1,1001,63537
1,1002,63531
1,1003,63551
1,1004,63546
1,1005,63570
1,1006,63555
1,1007,63536
1,1008,63537
1,1009,63496
1,1010,63562
1,1011,63495
1,1012,63553
1,1013,63538
1,1014,63537
1,1015,63489
1,1016,63548
1,1017,63527
1,1018,63523
1,1019,63513
1,1020,63529
1,1021,63465
1,1022,63511
1,1023,63580
1,1024,63457
1,1025,63491
1,1026,63508
1,1027,63527
1,1028,63479
1,1029,63499
1,1030,63480
1,1031,63483
1,1032,63484
1,1033,63501
1,1034,63478
1,1035,63446
1,1036,63485
1,1037,63449
1,1038,63439
1,1039,63469
1,1040,63406
1,1041,63442
1,1042,63479
1,1043,63475
1,1044,63436
1,1045,63431
1,1046,63412
1,1047,63413
1,1048,63423
1,1049,63453
1,1050,63373
1,1051,63407
1,1052,63391
1,1053,63415
1,1054,63428
1,1055,63410
1,1056,63445
1,1057,63437
1,1058,63429
1,1059,63423
1,1060,63432
1,1061,63409
1,1062,63387
1,1063,63374
1,1064,63375
1,1065,63412
1,1066,63362
1,1067,63380
1,1068,63369
1,1069,63353
1,1070,63320
1,1071,63346
1,1072,63394
1,1073,63295
1,1074,63338
1,1075,63354
1,1076,63377
1,1077,63329
1,1078,63420
1,1079,63393
1,1080,63342
1,1081,63317
1,1082,63300
1,1083,63315
1,1084,63337
1,1085,63319
1,1086,63292
1,1087,63373
1,1088,63320
1,1089,63280
1,1090,63326
1,1091,63299
1,1092,63312
1,1093,63332
1,1094,63347
1,1095,63278
1,1096,63313
1,1097,63294
1,1098,63276
1,1099,63265
1,1100,63315
1,1101,63313
1,1102,63353
1,1103,63284
1,1104,63316
1,1105,63229
1,1106,63273
1,1107,63260
1,1108,63304
1,1109,63312
1,1110,63265
1,1111,63304
1,1112,63296
1,1113,63301
1,1114,63305
1,1115,63235
1,1116,63238
1,1117,63257
1,1118,63304
1,1119,63260
1,1120,63279
1,1121,63262
1,1122,63253
1,1123,63292
1,1124,63266
1,1125,63263
1,1126,63266
1,1127,63274
1,1128,63233
1,1129,63235
1,1130,63230
1,1131,63223
1,1132,63218
1,1133,63248
1,1134,63199
1,1135,63244
1,1136,63249
1,1137,63247
1,1138,63212
1,1139,63233
1,1140,63240
1,1141,63231
1,1142,63239
1,1143,63191
1,1144,63194
1,1145,63267
1,1146,63255
1,1147,63226
1,1148,63178
1,1149,63188
1,1150,63172
1,1151,63218
1,1152,63184
1,1153,63211
1,1154,63218
1,1155,63206
1,1156,63185
1,1157,63209
1,1158,63163
1,1159,63157
1,1160,63165
1,1161,63191
1,1162,63167
1,1163,63141
1,1164,63128
1,1165,63225
1,1166,63216
1,1167,63167
1,1168,63149
1,1169,63170
1,1170,63170
1,1171,63130
1,1172,63124
1,1173,63146
1,1174,63171
1,1175,63160
1,1176,63148
1,1177,63141
1,1178,63121
1,1179,63113
1,1180,63146
1,1181,63161
1,1182,63110
1,1183,63127
1,1184,63108
1,1185,63117
1,1186,63141
1,1187,63169
1,1188,63100
1,1189,63095
1,1190,63149
1,1191,63133
1,1192,63045
1,1193,63106
1,1194,63108
1,1195,63105
1,1196,63136
1,1197,63081
1,1198,63081
1,1199,63083
1,1200,63070
1,1201,63085
1,1202,63116
1,1203,63131
1,1204,63115
1,1205,63045
1,1206,63095
1,1207,63089
1,1208,63085
1,1209,63045
1,1210,63116
1,1211,63082
1,1212,63079
1,1213,63073
1,1214,63108
1,1215,63113
1,1216,63043
1,1217,63088
1,1218,63069
1,1219,63058
1,1220,63033
1,1221,63000
1,1222,63045
1,1223,63053
1,1224,63033
1,1225,63049
1,1226,63001
1,1227,63072
1,1228,63035
1,1229,63070
1,1230,63110
1,1231,63001
1,1232,63016
1,1233,63076
1,1234,63049
1,1235,63096
1,1236,63046
1,1237,63034
1,1238,63010
1,1239,63041
1,1240,63039
1,1241,63031
1,1242,63007
1,1243,63034
1,1244,63020
1,1245,63055
1,1246,63055
1,1247,63007
1,1248,63017
1,1249,63051
1,1250,63043
1,1251,62993
1,1252,63042
1,1253,63000
1,1254,63015
1,1255,63018
1,1256,63080
1,1257,63053
1,1258,62996
1,1259,63022
1,1260,63057
1,1261,63031
1,1262,63066
1,1263,63023
1,1264,63024
1,1265,63007
1,1266,63037
1,1267,63012
1,1268,63007
1,1269,63040
1,1270,63006
1,1271,63040
1,1272,62964
1,1273,62972
1,1274,63041
1,1275,62992
1,1276,62993
1,1277,63020
1,1278,62980
1,1279,62963
1,1280,62963
1,1281,62990
1,1282,63005
1,1283,62981
1,1284,62956
1,1285,62976
1,1286,62991
1,1287,62964
1,1288,62937
1,1289,63007
1,1290,62956
1,1291,62987
1,1292,63002
1,1293,62975
1,1294,62958
1,1295,62940
1,1296,62911
1,1297,62907
1,1298,62944
1,1299,62925
1,1300,62902
1,1301,62927
1,1302,62917
1,1303,62921
1,1304,62913
1,1305,62960
1,1306,62867
1,1307,62936
1,1308,62860
1,1309,62860
1,1310,62911
1,1311,62865
1,1312,62907
1,1313,62865
1,1314,62904
1,1315,62892
1,1316,62876
1,1317,62901
1,1318,62853
1,1319,62913
1,1320,62903
1,1321,62866
1,1322,62868
1,1323,62840
1,1324,62802
1,1325,62767
1,1326,62862
1,1327,62828
1,1328,62812
1,1329,62782
1,1330,62792
1,1331,62768
1,1332,62800
1,1333,62761
1,1334,62724
1,1335,62708
1,1336,62749
1,1337,62683
1,1338,62658
1,1339,62368
1,1340,71143
