1,1,62426
1,2,62393
1,3,62433
1,4,62395
1,5,62428
1,6,62425
1,7,62452
1,8,62390
1,9,62413
1,10,62388
1,11,62376
1,12,62411
1,13,62423
1,14,62404
1,15,62411
1,16,62371
1,17,62451
1,18,62469
1,19,62409
1,20,62412
1,21,62404
1,22,62430
1,23,62428
1,24,62421
1,25,62406
1,26,62452
1,27,62456
1,28,62446
1,29,62352
1,30,62393
1,31,62439
1,32,62357
1,33,62445
1,34,62387
1,35,62412
1,36,62385
1,37,62417
1,38,62396
1,39,62384
1,40,62425
1,41,62396
1,42,62387
1,43,62476
1,44,62616
1,45,62468
1,46,62424
1,47,62443
1,48,62407
1,49,62457
1,50,62368
1,51,62403
1,52,62416
1,53,62387
1,54,62438
1,55,62443
1,56,62445
1,57,62472
1,58,62565
1,59,62429
1,60,62405
1,61,62402
1,62,62435
1,63,62488
1,64,62381
1,65,62442
1,66,62365
1,67,62395
1,68,62380
1,69,62394
1,70,62430
1,71,62475
1,72,62385
1,73,62479
1,74,62773
1,75,62442
1,76,62454
1,77,62488
1,78,62352
1,79,62417
1,80,62457
1,81,62435
1,82,62376
1,83,62426
1,84,62372
1,85,62361
1,86,62309
1,87,62437
1,88,62435
1,89,62393
1,90,62442
1,91,62404
1,92,62474
1,93,62458
1,94,62398
1,95,62446
1,96,62457
1,97,62451
1,98,62429
1,99,62458
1,100,62386
1,101,62480
1,102,62484
1,103,62434
1,104,62461
1,105,62444
1,106,62428
1,107,62458
1,108,62427
1,109,62445
1,110,62420
1,111,62455
1,112,62479
1,113,62455
1,114,62426
1,115,62373
1,116,62423
1,117,62427
1,118,62397
1,119,62426
1,120,62422
1,121,62475
1,122,62396
1,123,62407
1,124,62379
1,125,62401
1,126,62420
1,127,62469
1,128,62457
1,129,62442
1,130,62433
1,131,62447
1,132,62341
1,133,62424
1,134,62567
1,135,62401
1,136,62370
1,137,62400
1,138,62421
1,139,62384
1,140,62407
1,141,62445
1,142,62376
1,143,62406
1,144,62346
1,145,62427
1,146,62336
1,147,62431
1,148,62408
1,149,62432
1,150,62387
1,151,62416
1,152,62394
1,153,62374
1,154,62425
1,155,62457
1,156,62353
1,157,62379
1,158,62405
1,159,62421
1,160,62426
1,161,62416
1,162,62455
1,163,62361
1,164,62391
1,165,62454
1,166,62459
1,167,62466
1,168,62492
1,169,62398
1,170,62452
1,171,62505
1,172,62409
1,173,62433
1,174,62455
1,175,62410
1,176,62453
1,177,62441
1,178,62394
1,179,62446
1,180,62455
1,181,62382
1,182,62432
1,183,62419
1,184,62404
1,185,62422
1,186,62391
1,187,62441
1,188,62371
1,189,62453
1,190,62418
1,191,62432
1,192,62420
1,193,62413
1,194,62387
1,195,62436
1,196,62413
1,197,62394
1,198,62437
1,199,62456
1,200,62426
1,201,62451
1,202,62410
1,203,62348
1,204,62446
1,205,62395
1,206,62458
1,207,62493
1,208,62465
1,209,62418
1,210,62473
1,211,62376
1,212,62350
1,213,62407
1,214,62440
1,215,62473
1,216,62428
1,217,62436
1,218,62434
1,219,62410
1,220,62458
1,221,62420
1,222,62365
1,223,62473
1,224,62534
1,225,62424
1,226,62426
1,227,62428
1,228,62414
1,229,62442
1,230,62434
1,231,62432
1,232,62422
1,233,62397
1,234,62427
1,235,62463
1,236,62398
1,237,62463
1,238,62547
1,239,62390
1,240,62428
1,241,62534
1,242,62477
1,243,62493
1,244,62450
1,245,62455
1,246,62475
1,247,62424
1,248,62391
1,249,62413
1,250,62456
1,251,62377
1,252,62404
1,253,62409
1,254,62390
1,255,62448
1,256,62438
1,257,62451
1,258,62471
1,259,62466
1,260,62439
1,261,62468
1,262,62409
1,263,62388
1,264,62402
1,265,62459
1,266,62428
1,267,62419
1,268,62412
1,269,62452
1,270,62445
1,271,62382
1,272,62409
1,273,62341
1,274,62390
1,275,62446
1,276,62406
1,277,62434
1,278,62468
1,279,62402
1,280,62399
1,281,62404
1,282,62460
1,283,62512
1,284,62546
1,285,62457
1,286,62420
1,287,62425
1,288,62407
1,289,62416
1,290,62465
1,291,62387
1,292,62411
1,293,62378
1,294,62406
1,295,62463
1,296,62367
1,297,62465
1,298,62505
1,299,62502
1,300,62403
1,301,62444
1,302,62474
1,303,62408
1,304,62444
1,305,62561
1,306,62421
1,307,62403
1,308,62431
1,309,62437
1,310,62457
1,311,62412
1,312,62446
1,313,62461
1,314,62549
1,315,62456
1,316,62415
1,317,62425
1,318,62405
1,319,62384
1,320,62378
1,321,62433
1,322,62418
1,323,62399
1,324,62385
1,325,62413
1,326,62477
1,327,62440
1,328,62346
1,329,62389
1,330,62406
1,331,62454
1,332,62457
1,333,62536
1,334,62550
1,335,62451
1,336,62379
1,337,62380
1,338,62400
1,339,62405
1,340,62414
1,341,62522
1,342,62427
1,343,62441
1,344,62328
1,345,62418
1,346,62439
1,347,62411
1,348,62442
1,349,62434
1,350,62409
1,351,62417
1,352,62419
1,353,62465
1,354,62394
1,355,62492
1,356,62420
1,357,62503
1,358,62485
1,359,62439
1,360,62456
1,361,62453
1,362,62495
1,363,62393
1,364,62440
1,365,62410
1,366,62399
1,367,62443
1,368,62399
1,369,62443
1,370,62477
1,371,62457
1,372,62411
1,373,62452
1,374,62445
1,375,62423
1,376,62441
1,377,62442
1,378,62378
1,379,62447
1,380,62428
1,381,62416
1,382,62399
1,383,62462
1,384,62459
1,385,62464
1,386,62511
1,387,62448
1,388,62445
1,389,62398
1,390,62419
1,391,62418
1,392,62417
1,393,62400
1,394,62418
1,395,62448
1,396,62445
1,397,62430
1,398,62451
1,399,62398
1,400,62468
1,401,62474
1,402,62402
1,403,62470
1,404,62494
1,405,62441
1,406,62492
1,407,62465
1,408,62512
1,409,62398
1,410,62411
1,411,62426
1,412,62502
1,413,62462
1,414,62440
1,415,62436
1,416,62465
1,417,62430
1,418,62387
1,419,62455
1,420,62437
1,421,62490
1,422,62444
1,423,62423
1,424,62538
1,425,62379
1,426,62402
1,427,62447
1,428,62464
1,429,62442
1,430,62421
1,431,62390
1,432,62457
1,433,62411
1,434,62421
1,435,62410
1,436,62455
1,437,62384
1,438,62385
1,439,62432
1,440,62417
1,441,62444
1,442,62366
1,443,62419
1,444,62400
1,445,62466
1,446,62514
1,447,62410
1,448,62391
1,449,62353
1,450,62461
1,451,62461
1,452,62426
1,453,62449
1,454,62416
1,455,62476
1,456,62401
1,457,62412
1,458,62438
1,459,62454
1,460,62442
1,461,62507
1,462,62473
1,463,62414
1,464,62435
1,465,62449
1,466,62366
1,467,62418
1,468,62367
1,469,62435
1,470,62484
1,471,62588
1,472,62399
1,473,62396
1,474,62381
1,475,62406
1,476,62437
1,477,62497
1,478,62443
1,479,62524
1,480,62462
1,481,62436
1,482,62447
1,483,62406
1,484,62428
1,485,62432
1,486,62494
1,487,62465
1,488,62402
1,489,62436
1,490,62448
1,491,62385
1,492,62455
1,493,62426
1,494,62473
1,495,62503
1,496,62513
1,497,62442
1,498,62496
1,499,62447
1,500,62417
1,501,62394
1,502,62488
1,503,62454
1,504,62389
1,505,62436
1,506,62392
1,507,62434
1,508,62540
1,509,62439
1,510,62432
1,511,62360
1,512,62384
1,513,62414
1,514,62432
1,515,62437
1,516,62385
1,517,62450
1,518,62395
1,519,62465
1,520,62453
1,521,62486
1,522,62499
1,523,62388
1,524,62387
1,525,62394
1,526,62404
1,527,62401
1,528,62447
1,529,62449
1,530,62419
1,531,62433
1,532,62414
1,533,62385
1,534,62433
1,535,62513
1,536,62498
1,537,62392
1,538,62441
1,539,62607
1,540,62427
1,541,62429
1,542,62421
1,543,62427
1,544,62419
1,545,62475
1,546,62426
1,547,62396
1,548,62474
1,549,62444
1,550,62363
1,551,62442
1,552,62430
1,553,62392
1,554,62457
1,555,62537
1,556,62418
1,557,62479
1,558,62513
1,559,62453
1,560,62432
1,561,62420
1,562,62479
1,563,62411
1,564,62476
1,565,62374
1,566,62411
1,567,62473
1,568,62423
1,569,62382
1,570,62450
1,571,62476
1,572,62416
1,573,62390
1,574,62462
1,575,62507
1,576,62486
1,577,62461
1,578,62355
1,579,62445
1,580,62436
1,581,62396
1,582,62424
1,583,62386
1,584,62439
1,585,62426
1,586,62404
1,587,62448
1,588,62457
1,589,62461
1,590,62390
1,591,62467
1,592,62436
1,593,62333
1,594,62421
1,595,62416
1,596,62368
1,597,62438
1,598,62511
1,599,62450
1,600,62487
1,601,62484
1,602,62479
1,603,62374
1,604,62371
1,605,62330
1,606,62409
1,607,62403
1,608,62396
1,609,62409
1,610,62466
1,611,62429
1,612,62449
1,613,62467
1,614,62448
1,615,62450
1,616,62472
1,617,62423
1,618,62434
1,619,62432
1,620,62446
1,621,62378
1,622,62430
1,623,62403
1,624,62476
1,625,62386
1,626,62477
1,627,62436
1,628,62424
1,629,62482
1,630,62439
1,631,62405
1,632,62449
1,633,62413
1,634,62404
1,635,62416
1,636,62478
1,637,62438
1,638,62421
1,639,62435
1,640,62448
1,641,62425
1,642,62456
1,643,62518
1,644,62375
1,645,62494
1,646,62449
1,647,62406
1,648,62454
1,649,62446
1,650,62395
1,651,62455
1,652,62400
1,653,62493
1,654,62482
1,655,62469
1,656,62476
1,657,62408
1,658,62405
1,659,62447
1,660,62405
1,661,62559
1,662,62459
1,663,62482
1,664,62392
1,665,62424
1,666,62397
1,667,62421
1,668,62427
1,669,62414
1,670,62456
1,671,62447
1,672,62447
1,673,62476
1,674,62403
1,675,62467
1,676,62385
1,677,62432
1,678,62410
1,679,62528
1,680,62458
1,681,62936
1,682,62426
1,683,62435
1,684,62445
1,685,62471
1,686,62400
1,687,62438
1,688,62424
1,689,62472
1,690,62428
1,691,62449
1,692,62456
1,693,62441
1,694,62381
1,695,62429
1,696,62433
1,697,62454
1,698,62475
1,699,62463
1,700,62405
1,701,62451
1,702,62468
1,703,62396
1,704,62481
1,705,62441
1,706,62439
1,707,62429
1,708,62445
1,709,62471
1,710,62413
1,711,62458
1,712,62398
1,713,62390
1,714,62392
1,715,62424
1,716,62345
1,717,62446
1,718,62437
1,719,62427
1,720,62432
1,721,62395
1,722,62459
1,723,62499
1,724,62398
1,725,62520
1,726,62442
1,727,62425
1,728,62442
1,729,62464
1,730,62480
1,731,62416
1,732,62482
1,733,62469
1,734,62373
1,735,62439
1,736,62360
1,737,62464
1,738,62403
1,739,62448
1,740,62429
1,741,62488
1,742,62419
1,743,62382
1,744,62423
1,745,62469
1,746,62516
1,747,62385
1,748,62441
1,749,62493
1,750,62474
1,751,62448
1,752,62403
1,753,62413
1,754,62483
1,755,62432
1,756,62500
1,757,62470
1,758,62443
1,759,62397
1,760,62451
1,761,62421
1,762,62394
1,763,62409
1,764,62435
1,765,62426
1,766,62461
1,767,62365
1,768,62381
1,769,62509
1,770,62388
1,771,62454
1,772,62487
1,773,62436
1,774,62481
1,775,62440
1,776,62476
1,777,62443
1,778,62395
1,779,62368
1,780,62414
1,781,62431
1,782,62414
1,783,62415
1,784,62492
1,785,62546
1,786,62417
1,787,62420
1,788,62425
1,789,62427
1,790,62363
1,791,62462
1,792,62436
1,793,62406
1,794,62426
1,795,62388
1,796,62480
1,797,62537
1,798,62503
1,799,62470
1,800,62443
1,801,62481
1,802,62542
1,803,62471
1,804,62478
1,805,62356
1,806,62399
1,807,62481
1,808,62384
1,809,62403
1,810,62449
1,811,62468
1,812,62427
1,813,62404
1,814,62419
1,815,62483
1,816,62387
1,817,62427
1,818,62468
1,819,62465
1,820,62435
1,821,62447
1,822,62489
1,823,62438
1,824,62497
1,825,62397
1,826,62446
1,827,62484
1,828,62426
1,829,62444
1,830,62432
1,831,62458
1,832,62457
1,833,62354
1,834,62397
1,835,62459
1,836,62518
1,837,62379
1,838,62406
1,839,62451
1,840,62416
1,841,62364
1,842,62479
1,843,62450
1,844,62440
1,845,62416
1,846,62460
1,847,62406
1,848,62423
1,849,62408
1,850,62458
1,851,62417
1,852,62403
1,853,62544
1,854,62395
1,855,62409
1,856,62440
1,857,62388
1,858,62417
1,859,62373
1,860,62414
1,861,62445
1,862,62452
1,863,62446
1,864,62429
1,865,62415
1,866,62449
1,867,62422
1,868,62420
1,869,62467
1,870,62542
1,871,62415
1,872,62438
1,873,62334
1,874,62401
1,875,62407
1,876,62460
1,877,62514
1,878,62445
1,879,62443
1,880,62464
1,881,62515
1,882,62420
1,883,62429
1,884,62392
1,885,62423
1,886,62441
1,887,62440
1,888,62467
1,889,62424
1,890,62409
1,891,62350
1,892,62453
1,893,62428
1,894,62390
1,895,62353
1,896,62389
1,897,62454
1,898,62439
1,899,62478
1,900,62462
1,901,62419
1,902,62374
1,903,62490
1,904,62408
1,905,62352
1,906,62454
1,907,62485
1,908,62445
1,909,62433
1,910,62388
1,911,62447
1,912,62458
1,913,62446
1,914,62427
1,915,62443
1,916,62406
1,917,62404
1,918,62472
1,919,62445
1,920,62392
1,921,62444
1,922,62434
1,923,62465
1,924,62444
1,925,62447
1,926,62451
1,927,62425
1,928,62397
1,929,62415
1,930,62426
1,931,62420
1,932,62471
1,933,62464
1,934,62424
1,935,62467
1,936,62430
1,937,62426
1,938,62440
1,939,62420
1,940,62491
1,941,62451
1,942,62429
1,943,62465
1,944,62482
1,945,62420
1,946,62399
1,947,62440
1,948,62410
1,949,62454
1,950,62431
1,951,62463
1,952,62433
1,953,62385
1,954,62352
1,955,62544
1,956,62448
1,957,62503
1,958,62436
1,959,62450
1,960,62423
1,961,62426
1,962,62430
1,963,62484
1,964,62456
1,965,62345
1,966,62417
1,967,62359
1,968,62399
1,969,62459
1,970,62414
1,971,62442
1,972,62449
1,973,62397
1,974,62402
1,975,62466
1,976,62448
1,977,62461
1,978,62443
1,979,62422
1,980,62390
1,981,62427
1,982,62420
1,983,62372
1,984,62377
1,985,62410
1,986,62463
1,987,62416
1,988,62383
1,989,62465
1,990,62462
1,991,62440
1,992,62496
1,993,62423
1,994,62380
1,995,62417
1,996,62410
1,997,62424
1,998,62417
1,999,62456
1,1000,62390
1,1001,62453
1,1002,62453
1,1003,62419
1,1004,62424
1,1005,62456
1,1006,62392
1,1007,62491
1,1008,62484
1,1009,62516
1,1010,62433
1,1011,62471
1,1012,62460
1,1013,62476
1,1014,62388
1,1015,62449
1,1016,62440
1,1017,62520
1,1018,62445
1,1019,62469
1,1020,62419
1,1021,62443
1,1022,62399
1,1023,62379
1,1024,62406
1,1025,62414
1,1026,62406
1,1027,62376
1,1028,62435
1,1029,62449
1,1030,62416
1,1031,62449
1,1032,62385
1,1033,62425
1,1034,62550
1,1035,62423
1,1036,62474
1,1037,62459
1,1038,62470
1,1039,62379
1,1040,62454
1,1041,62408
1,1042,62383
1,1043,62420
1,1044,62411
1,1045,62350
1,1046,62473
1,1047,62442
1,1048,62462
1,1049,62427
1,1050,62414
1,1051,62389
1,1052,62550
1,1053,62432
1,1054,62444
1,1055,62438
1,1056,62462
1,1057,62481
1,1058,62402
1,1059,62490
1,1060,62336
1,1061,62436
1,1062,62433
1,1063,62429
1,1064,62461
1,1065,62413
1,1066,62466
1,1067,62442
1,1068,62507
1,1069,62469
1,1070,62420
1,1071,62450
1,1072,62401
1,1073,62410
1,1074,62433
1,1075,62452
1,1076,62424
1,1077,62373
1,1078,62383
1,1079,62398
1,1080,62463
1,1081,62422
1,1082,62451
1,1083,62433
1,1084,62446
1,1085,62445
1,1086,62408
1,1087,62421
1,1088,62427
1,1089,62378
1,1090,62430
1,1091,62489
1,1092,62436
1,1093,62421
1,1094,62477
1,1095,62526
1,1096,62433
1,1097,62391
1,1098,62388
1,1099,62441
1,1100,62444
1,1101,62443
1,1102,62378
1,1103,62617
1,1104,62431
1,1105,62473
1,1106,62437
1,1107,62487
1,1108,62416
1,1109,62506
1,1110,62443
1,1111,62412
1,1112,62420
1,1113,62425
1,1114,62413
1,1115,62474
1,1116,62391
1,1117,62397
1,1118,62412
1,1119,62413
1,1120,62451
1,1121,62407
1,1122,62413
1,1123,62440
1,1124,62504
1,1125,62442
1,1126,62478
1,1127,62379
1,1128,62431
1,1129,62423
1,1130,62464
1,1131,62470
1,1132,62467
1,1133,62365
1,1134,62469
1,1135,62493
1,1136,62430
1,1137,62442
1,1138,62404
1,1139,62447
1,1140,62447
1,1141,62428
1,1142,62554
1,1143,62475
1,1144,62443
1,1145,62499
1,1146,62801
1,1147,62441
1,1148,62460
1,1149,62463
1,1150,62451
1,1151,62440
1,1152,62493
1,1153,62395
1,1154,62447
1,1155,62451
1,1156,62448
1,1157,62437
1,1158,62474
1,1159,62534
1,1160,62461
1,1161,62477
1,1162,62695
1,1163,62890
1,1164,62548
1,1165,62443
1,1166,62442
1,1167,62404
1,1168,62445
1,1169,62458
1,1170,62421
1,1171,62422
1,1172,62460
1,1173,62447
1,1174,62426
1,1175,62389
1,1176,62427
1,1177,62506
1,1178,62428
1,1179,62443
1,1180,62394
1,1181,62412
1,1182,62507
1,1183,62500
1,1184,62386
1,1185,62425
1,1186,62389
1,1187,62471
1,1188,62504
1,1189,62484
1,1190,62446
1,1191,62447
1,1192,62422
1,1193,62442
1,1194,62487
1,1195,62464
1,1196,62455
1,1197,62417
1,1198,62435
1,1199,62433
1,1200,62399
1,1201,62438
1,1202,62415
1,1203,62408
1,1204,62498
1,1205,62445
1,1206,62425
1,1207,62412
1,1208,62509
1,1209,62438
1,1210,62396
1,1211,62473
1,1212,62526
1,1213,62410
1,1214,62445
1,1215,62426
1,1216,62442
1,1217,62492
1,1218,62454
1,1219,62525
1,1220,62445
1,1221,62431
1,1222,62499
1,1223,62581
1,1224,62453
1,1225,62393
1,1226,62423
1,1227,62457
1,1228,62426
1,1229,62521
1,1230,62523
1,1231,62473
1,1232,62541
1,1233,62550
1,1234,62406
1,1235,62451
1,1236,62524
1,1237,62478
1,1238,62410
1,1239,62470
1,1240,62499
1,1241,62484
1,1242,62495
1,1243,62427
1,1244,62492
1,1245,62518
1,1246,62386
1,1247,62548
1,1248,62487
1,1249,62517
1,1250,62436
1,1251,62542
1,1252,62582
1,1253,62685
1,1254,62536
1,1255,62488
1,1256,62511
1,1257,62563
1,1258,62544
1,1259,62553
1,1260,62494
1,1261,62485
1,1262,62534
1,1263,62516
1,1264,62452
1,1265,62504
1,1266,62580
1,1267,62524
1,1268,62531
1,1269,62508
1,1270,62493
1,1271,62456
1,1272,62502
1,1273,62476
1,1274,62512
1,1275,62536
1,1276,62533
1,1277,62518
1,1278,62515
1,1279,62503
1,1280,62546
1,1281,62455
1,1282,62492
1,1283,62540
1,1284,62559
1,1285,62504
1,1286,62490
1,1287,62486
1,1288,62498
1,1289,62559
1,1290,62474
1,1291,62533
1,1292,62474
1,1293,62581
1,1294,62436
1,1295,62477
1,1296,62524
1,1297,62554
1,1298,62549
1,1299,62552
1,1300,62480
1,1301,62519
1,1302,62417
1,1303,62526
1,1304,62641
1,1305,62666
1,1306,62494
1,1307,62496
1,1308,62448
1,1309,62461
1,1310,62460
1,1311,62555
1,1312,62502
1,1313,62534
1,1314,62490
1,1315,62520
1,1316,62512
1,1317,62486
1,1318,62498
1,1319,62499
1,1320,62539
1,1321,62554
1,1322,62512
1,1323,62526
1,1324,62524
1,1325,62525
1,1326,62539
1,1327,62484
1,1328,62469
1,1329,62458
1,1330,62475
1,1331,62448
1,1332,62456
1,1333,62457
1,1334,62435
1,1335,62411
1,1336,62405
1,1337,62399
1,1338,62334
1,1339,62054
1,1340,70764
