1,1,61589
1,2,61587
1,3,61578
1,4,61614
1,5,61577
1,6,61617
1,7,61616
1,8,61590
1,9,61609
1,10,61621
1,11,61616
1,12,61618
1,13,61606
1,14,61591
1,15,61605
1,16,61617
1,17,61589
1,18,61594
1,19,61662
1,20,61649
1,21,61606
1,22,61617
1,23,61600
1,24,61648
1,25,61610
1,26,61637
1,27,61631
1,28,61616
1,29,61614
1,30,61617
1,31,61626
1,32,61596
1,33,61601
1,34,61643
1,35,61657
1,36,61622
1,37,61609
1,38,61599
1,39,61597
1,40,61633
1,41,61599
1,42,61589
1,43,61586
1,44,61569
1,45,61632
1,46,61626
1,47,61616
1,48,61610
1,49,61654
1,50,61599
1,51,61570
1,52,61609
1,53,61621
1,54,61633
1,55,61603
1,56,61594
1,57,61610
1,58,61582
1,59,61596
1,60,61614
1,61,61630
1,62,61636
1,63,61627
1,64,61622
1,65,61608
1,66,61639
1,67,61594
1,68,61657
1,69,61632
1,70,61653
1,71,61630
1,72,61587
1,73,61615
1,74,61600
1,75,61604
1,76,61599
1,77,61599
1,78,61593
1,79,61594
1,80,61617
1,81,61616
1,82,61606
1,83,61639
1,84,61600
1,85,61637
1,86,61641
1,87,61580
1,88,61594
1,89,61605
1,90,61593
1,91,61614
1,92,61606
1,93,61580
1,94,61597
1,95,61595
1,96,61654
1,97,61582
1,98,61622
1,99,61654
1,100,61605
1,101,61615
1,102,61612
1,103,61609
1,104,61612
1,105,61576
1,106,61608
1,107,61645
1,108,61595
1,109,61619
1,110,61614
1,111,61591
1,112,61643
1,113,61631
1,114,61605
1,115,61617
1,116,61584
1,117,61579
1,118,61633
1,119,61601
1,120,61611
1,121,61634
1,122,61571
1,123,61616
1,124,61551
1,125,61606
1,126,61624
1,127,61619
1,128,61593
1,129,61607
1,130,61600
1,131,61625
1,132,61658
1,133,61626
1,134,61646
1,135,61592
1,136,61585
1,137,61634
1,138,61657
1,139,61618
1,140,61605
1,141,61589
1,142,61610
1,143,61604
1,144,61607
1,145,61627
1,146,61590
1,147,61611
1,148,61642
1,149,61597
1,150,61618
1,151,61654
1,152,61574
1,153,61614
1,154,61636
1,155,61597
1,156,61601
1,157,61592
1,158,61646
1,159,61599
1,160,61599
1,161,61626
1,162,61615
1,163,61581
1,164,61598
1,165,61604
1,166,61615
1,167,61627
1,168,61633
1,169,61603
1,170,61589
1,171,61607
1,172,61608
1,173,61624
1,174,61637
1,175,61606
1,176,61621
1,177,61605
1,178,61597
1,179,61581
1,180,61620
1,181,61618
1,182,61606
1,183,61624
1,184,61645
1,185,61603
1,186,61625
1,187,61618
1,188,61648
1,189,61610
1,190,61631
1,191,61647
1,192,61616
1,193,61603
1,194,61605
1,195,61630
1,196,61632
1,197,61638
1,198,61627
1,199,61600
1,200,61632
1,201,61622
1,202,61623
1,203,61594
1,204,61626
1,205,61652
1,206,61647
1,207,61609
1,208,61597
1,209,61608
1,210,61627
1,211,61605
1,212,61617
1,213,61634
1,214,61619
1,215,61618
1,216,61622
1,217,61554
1,218,61628
1,219,61618
1,220,61611
1,221,61639
1,222,61642
1,223,61603
1,224,61589
1,225,61581
1,226,61643
1,227,61635
1,228,61624
1,229,61615
1,230,61591
1,231,61606
1,232,61590
1,233,61606
1,234,61601
1,235,61615
1,236,61613
1,237,61604
1,238,61659
1,239,61622
1,240,61622
1,241,61607
1,242,61607
1,243,61623
1,244,61597
1,245,61597
1,246,61569
1,247,61596
1,248,61611
1,249,61658
1,250,61581
1,251,61578
1,252,61596
1,253,61618
1,254,61608
1,255,61620
1,256,61649
1,257,61609
1,258,61621
1,259,61600
1,260,61598
1,261,61603
1,262,61611
1,263,61606
1,264,61601
1,265,61583
1,266,61635
1,267,61615
1,268,61612
1,269,61607
1,270,61617
1,271,61629
1,272,61642
1,273,61573
1,274,61589
1,275,61627
1,276,61570
1,277,61607
1,278,61661
1,279,61594
1,280,61560
1,281,61610
1,282,61661
1,283,61608
1,284,61618
1,285,61609
1,286,61640
1,287,61635
1,288,61606
1,289,61637
1,290,61604
1,291,61623
1,292,61617
1,293,61636
1,294,61626
1,295,61610
1,296,61614
1,297,61626
1,298,61625
1,299,61587
1,300,61654
1,301,61631
1,302,61608
1,303,61650
1,304,61619
1,305,61581
1,306,61614
1,307,61575
1,308,61612
1,309,61629
1,310,61592
1,311,61633
1,312,61602
1,313,61590
1,314,61629
1,315,61610
1,316,61621
1,317,61604
1,318,61628
1,319,61599
1,320,61611
1,321,61613
1,322,61642
1,323,61616
1,324,61637
1,325,61578
1,326,61610
1,327,61587
1,328,61542
1,329,61635
1,330,61611
1,331,61638
1,332,61609
1,333,61624
1,334,61599
1,335,61627
1,336,61601
1,337,61590
1,338,61588
1,339,61627
1,340,61609
1,341,61605
1,342,61628
1,343,61637
1,344,61640
1,345,61602
1,346,61590
1,347,61670
1,348,61608
1,349,61582
1,350,61629
1,351,61638
1,352,61601
1,353,61637
1,354,61621
1,355,61624
1,356,61616
1,357,61598
1,358,61642
1,359,61656
1,360,61630
1,361,61628
1,362,61594
1,363,61619
1,364,61658
1,365,61671
1,366,61601
1,367,61607
1,368,61639
1,369,61637
1,370,61629
1,371,61634
1,372,61609
1,373,61606
1,374,61632
1,375,61644
1,376,61593
1,377,61613
1,378,61600
1,379,61625
1,380,61629
1,381,61587
1,382,61643
1,383,61644
1,384,61639
1,385,61611
1,386,61630
1,387,61625
1,388,61583
1,389,61608
1,390,61594
1,391,61625
1,392,61637
1,393,61628
1,394,61630
1,395,61589
1,396,61654
1,397,61616
1,398,61632
1,399,61590
1,400,61576
1,401,61614
1,402,61612
1,403,61604
1,404,61618
1,405,61603
1,406,61637
1,407,61618
1,408,61615
1,409,61619
1,410,61605
1,411,61630
1,412,61580
1,413,61607
1,414,61613
1,415,61631
1,416,61600
1,417,61646
1,418,61586
1,419,61600
1,420,61602
1,421,61617
1,422,61634
1,423,61613
1,424,61601
1,425,61594
1,426,61608
1,427,61576
1,428,61623
1,429,61587
1,430,61586
1,431,61600
1,432,61634
1,433,61612
1,434,61617
1,435,61619
1,436,61603
1,437,61621
1,438,61593
1,439,61609
1,440,61610
1,441,61634
1,442,61618
1,443,61603
1,444,61616
1,445,61586
1,446,61668
1,447,61622
1,448,61645
1,449,61630
1,450,61626
1,451,61597
1,452,61596
1,453,61593
1,454,61623
1,455,61647
1,456,61613
1,457,61619
1,458,61598
1,459,61582
1,460,61631
1,461,61614
1,462,61605
1,463,61596
1,464,61589
1,465,61657
1,466,61633
1,467,61618
1,468,61636
1,469,61616
1,470,61596
1,471,61629
1,472,61574
1,473,61618
1,474,61617
1,475,61625
1,476,61621
1,477,61594
1,478,61654
1,479,61628
1,480,61608
1,481,61634
1,482,61606
1,483,61566
1,484,61652
1,485,61623
1,486,61622
1,487,61619
1,488,61616
1,489,61610
1,490,61604
1,491,61586
1,492,61594
1,493,61602
1,494,61629
1,495,61597
1,496,61608
1,497,61599
1,498,61604
1,499,61657
1,500,61601
1,501,61606
1,502,61664
1,503,61633
1,504,61607
1,505,61628
1,506,61618
1,507,61569
1,508,61613
1,509,61614
1,510,61604
1,511,61609
1,512,61650
1,513,61631
1,514,61611
1,515,61651
1,516,61593
1,517,61634
1,518,61642
1,519,61607
1,520,61633
1,521,61615
1,522,61628
1,523,61630
1,524,61678
1,525,61626
1,526,61632
1,527,61603
1,528,61642
1,529,61615
1,530,61622
1,531,61606
1,532,61629
1,533,61613
1,534,61600
1,535,61637
1,536,61618
1,537,61649
1,538,61591
1,539,61656
1,540,61643
1,541,61630
1,542,61604
1,543,61629
1,544,61601
1,545,61641
1,546,61611
1,547,61603
1,548,61590
1,549,61624
1,550,61606
1,551,61630
1,552,61658
1,553,61566
1,554,61617
1,555,61618
1,556,61587
1,557,61623
1,558,61636
1,559,61589
1,560,61653
1,561,61616
1,562,61625
1,563,61628
1,564,61630
1,565,61615
1,566,61584
1,567,61628
1,568,61649
1,569,61644
1,570,61615
1,571,61653
1,572,61605
1,573,61606
1,574,61616
1,575,61599
1,576,61637
1,577,61597
1,578,61673
1,579,61619
1,580,61616
1,581,61617
1,582,61616
1,583,61595
1,584,61582
1,585,61629
1,586,61636
1,587,61632
1,588,61616
1,589,61598
1,590,61610
1,591,61604
1,592,61663
1,593,61632
1,594,61604
1,595,61633
1,596,61620
1,597,61626
1,598,61630
1,599,61650
1,600,61647
1,601,61625
1,602,61613
1,603,61632
1,604,61636
1,605,61631
1,606,61606
1,607,61607
1,608,61629
1,609,61631
1,610,61635
1,611,61587
1,612,61599
1,613,61618
1,614,61631
1,615,61589
1,616,61576
1,617,61600
1,618,61619
1,619,61625
1,620,61604
1,621,61601
1,622,61578
1,623,61614
1,624,61646
1,625,61628
1,626,61614
1,627,61640
1,628,61639
1,629,61656
1,630,61591
1,631,61599
1,632,61663
1,633,61591
1,634,61619
1,635,61638
1,636,61617
1,637,61624
1,638,61651
1,639,61637
1,640,61599
1,641,61621
1,642,61649
1,643,61682
1,644,61585
1,645,61606
1,646,61645
1,647,61580
1,648,61593
1,649,61611
1,650,61629
1,651,61618
1,652,61633
1,653,61606
1,654,61617
1,655,61648
1,656,61596
1,657,61600
1,658,61611
1,659,61598
1,660,61633
1,661,61611
1,662,61641
1,663,61606
1,664,61603
1,665,61653
1,666,61574
1,667,61568
1,668,61613
1,669,61598
1,670,61604
1,671,61628
1,672,61627
1,673,61643
1,674,61599
1,675,61632
1,676,61565
1,677,61601
1,678,61634
1,679,61647
1,680,61649
1,681,61606
1,682,61579
1,683,61641
1,684,61632
1,685,61608
1,686,61664
1,687,61645
1,688,61617
1,689,61642
1,690,61607
1,691,61630
1,692,61617
1,693,61597
1,694,61633
1,695,61621
1,696,61628
1,697,61606
1,698,61586
1,699,61622
1,700,61635
1,701,61608
1,702,61599
1,703,61624
1,704,61598
1,705,61635
1,706,61649
1,707,61580
1,708,61642
1,709,61585
1,710,61623
1,711,61652
1,712,61616
1,713,61637
1,714,61602
1,715,61626
1,716,61616
1,717,61572
1,718,61651
1,719,61632
1,720,61600
1,721,61636
1,722,61648
1,723,61618
1,724,61625
1,725,61596
1,726,61641
1,727,61634
1,728,61628
1,729,61637
1,730,61639
1,731,61635
1,732,61606
1,733,61639
1,734,61580
1,735,61589
1,736,61625
1,737,61562
1,738,61633
1,739,61630
1,740,61634
1,741,61591
1,742,61592
1,743,61586
1,744,61613
1,745,61634
1,746,61611
1,747,61592
1,748,61590
1,749,61643
1,750,61649
1,751,61613
1,752,61631
1,753,61617
1,754,61590
1,755,61603
1,756,61641
1,757,61587
1,758,61616
1,759,61626
1,760,61605
1,761,61626
1,762,61592
1,763,61590
1,764,61632
1,765,61628
1,766,61630
1,767,61626
1,768,61610
1,769,61672
1,770,61644
1,771,61602
1,772,61603
1,773,61641
1,774,61636
1,775,61650
1,776,61646
1,777,61602
1,778,61618
1,779,61570
1,780,61607
1,781,61614
1,782,61612
1,783,61603
1,784,61594
1,785,61619
1,786,61623
1,787,61617
1,788,61655
1,789,61634
1,790,61610
1,791,61635
1,792,61641
1,793,61606
1,794,61620
1,795,61616
1,796,61614
1,797,61597
1,798,61637
1,799,61611
1,800,61618
1,801,61650
1,802,61626
1,803,61661
1,804,61625
1,805,61633
1,806,61627
1,807,61555
1,808,61597
1,809,61595
1,810,61636
1,811,61598
1,812,61657
1,813,61651
1,814,61645
1,815,61591
1,816,61617
1,817,61606
1,818,61580
1,819,61635
1,820,61581
1,821,61609
1,822,61646
1,823,61614
1,824,61633
1,825,61629
1,826,61589
1,827,61640
1,828,61607
1,829,61617
1,830,61620
1,831,61608
1,832,61622
1,833,61602
1,834,61633
1,835,61589
1,836,61633
1,837,61633
1,838,61612
1,839,61613
1,840,61624
1,841,61609
1,842,61639
1,843,61610
1,844,61611
1,845,61611
1,846,61644
1,847,61591
1,848,61607
1,849,61665
1,850,61605
1,851,61629
1,852,61650
1,853,61596
1,854,61644
1,855,61627
1,856,61605
1,857,61641
1,858,61630
1,859,61613
1,860,61631
1,861,61620
1,862,61642
1,863,61597
1,864,61627
1,865,61647
1,866,61600
1,867,61611
1,868,61604
1,869,61582
1,870,61584
1,871,61620
1,872,61616
1,873,61630
1,874,61659
1,875,61591
1,876,61623
1,877,61659
1,878,61616
1,879,61605
1,880,61648
1,881,61616
1,882,61603
1,883,61628
1,884,61650
1,885,61634
1,886,61651
1,887,61620
1,888,61600
1,889,61609
1,890,61639
1,891,61632
1,892,61624
1,893,61634
1,894,61580
1,895,61616
1,896,61627
1,897,61597
1,898,61598
1,899,61601
1,900,61637
1,901,61631
1,902,61620
1,903,61584
1,904,61618
1,905,61633
1,906,61610
1,907,61636
1,908,61631
1,909,61593
1,910,61597
1,911,61601
1,912,61600
1,913,61621
1,914,61599
1,915,61606
1,916,61631
1,917,61615
1,918,61626
1,919,61614
1,920,61648
1,921,61635
1,922,61613
1,923,61646
1,924,61628
1,925,61637
1,926,61656
1,927,61647
1,928,61607
1,929,61597
1,930,61588
1,931,61610
1,932,61630
1,933,61603
1,934,61648
1,935,61625
1,936,61635
1,937,61564
1,938,61594
1,939,61635
1,940,61641
1,941,61633
1,942,61622
1,943,61631
1,944,61611
1,945,61605
1,946,61629
1,947,61609
1,948,61616
1,949,61622
1,950,61606
1,951,61627
1,952,61634
1,953,61619
1,954,61614
1,955,61626
1,956,61625
1,957,61648
1,958,61604
1,959,61643
1,960,61594
1,961,61633
1,962,61614
1,963,61653
1,964,61650
1,965,61632
1,966,61628
1,967,61591
1,968,61556
1,969,61602
1,970,61631
1,971,61601
1,972,61638
1,973,61645
1,974,61613
1,975,61609
1,976,61645
1,977,61645
1,978,61637
1,979,61633
1,980,61624
1,981,61630
1,982,61625
1,983,61590
1,984,61616
1,985,61616
1,986,61603
1,987,61612
1,988,61609
1,989,61612
1,990,61614
1,991,61634
1,992,61705
1,993,61628
1,994,61596
1,995,61600
1,996,61638
1,997,61666
1,998,61669
1,999,61623
1,1000,61652
1,1001,61621
1,1002,61593
1,1003,61607
1,1004,61621
1,1005,61606
1,1006,61641
1,1007,61629
1,1008,61647
1,1009,61635
1,1010,61655
1,1011,61665
1,1012,61618
1,1013,61642
1,1014,61614
1,1015,61598
1,1016,61615
1,1017,61626
1,1018,61648
1,1019,61626
1,1020,61606
1,1021,61650
1,1022,61653
1,1023,61687
1,1024,61633
1,1025,61672
1,1026,61624
1,1027,61607
1,1028,61605
1,1029,61647
1,1030,61643
1,1031,61650
1,1032,61632
1,1033,61672
1,1034,61599
1,1035,61611
1,1036,61642
1,1037,61644
1,1038,61657
1,1039,61611
1,1040,61648
1,1041,61631
1,1042,61634
1,1043,61641
1,1044,61578
1,1045,61606
1,1046,61645
1,1047,61657
1,1048,61661
1,1049,61608
1,1050,61628
1,1051,61645
1,1052,61628
1,1053,61606
1,1054,61660
1,1055,61614
1,1056,61618
1,1057,61635
1,1058,61624
1,1059,61663
1,1060,61638
1,1061,61636
1,1062,61625
1,1063,61642
1,1064,61633
1,1065,61612
1,1066,61624
1,1067,61631
1,1068,61651
1,1069,61604
1,1070,61597
1,1071,61598
1,1072,61628
1,1073,61634
1,1074,61656
1,1075,61618
1,1076,61626
1,1077,61623
1,1078,61630
1,1079,61647
1,1080,61660
1,1081,61609
1,1082,61601
1,1083,61610
1,1084,61621
1,1085,61620
1,1086,61601
1,1087,61605
1,1088,61604
1,1089,61636
1,1090,61590
1,1091,61605
1,1092,61625
1,1093,61617
1,1094,61650
1,1095,61650
1,1096,61616
1,1097,61652
1,1098,61592
1,1099,61607
1,1100,61666
1,1101,61616
1,1102,61649
1,1103,61637
1,1104,61605
1,1105,61668
1,1106,61669
1,1107,61622
1,1108,61593
1,1109,61624
1,1110,61643
1,1111,61653
1,1112,61631
1,1113,61657
1,1114,61645
1,1115,61630
1,1116,61605
1,1117,61626
1,1118,61645
1,1119,61653
1,1120,61626
1,1121,61636
1,1122,61672
1,1123,61660
1,1124,61674
1,1125,61648
1,1126,61648
1,1127,61640
1,1128,61721
1,1129,61636
1,1130,61635
1,1131,61683
1,1132,61624
1,1133,61646
1,1134,61634
1,1135,61651
1,1136,61700
1,1137,61652
1,1138,61668
1,1139,61635
1,1140,61671
1,1141,61635
1,1142,61674
1,1143,61647
1,1144,61670
1,1145,61647
1,1146,61669
1,1147,61658
1,1148,61642
1,1149,61632
1,1150,61631
1,1151,61640
1,1152,61652
1,1153,61633
1,1154,61687
1,1155,61647
1,1156,61640
1,1157,61674
1,1158,61663
1,1159,61675
1,1160,61675
1,1161,61626
1,1162,61632
1,1163,61632
1,1164,61643
1,1165,61628
1,1166,61704
1,1167,61712
1,1168,61645
1,1169,61598
1,1170,61685
1,1171,61699
1,1172,61615
1,1173,61605
1,1174,61655
1,1175,61630
1,1176,61596
1,1177,61657
1,1178,61641
1,1179,61665
1,1180,61649
1,1181,61606
1,1182,61644
1,1183,61602
1,1184,61672
1,1185,61653
1,1186,61654
1,1187,61678
1,1188,61641
1,1189,61665
1,1190,61647
1,1191,61666
1,1192,61671
1,1193,61655
1,1194,61665
1,1195,61658
1,1196,61683
1,1197,61690
1,1198,61646
1,1199,61633
1,1200,61618
1,1201,61637
1,1202,61661
1,1203,61641
1,1204,61644
1,1205,61586
1,1206,61644
1,1207,61640
1,1208,61625
1,1209,61679
1,1210,61689
1,1211,61656
1,1212,61625
1,1213,61644
1,1214,61650
1,1215,61613
1,1216,61628
1,1217,61627
1,1218,61647
1,1219,61639
1,1220,61690
1,1221,61634
1,1222,61664
1,1223,61691
1,1224,61658
1,1225,61636
1,1226,61624
1,1227,61667
1,1228,61678
1,1229,61686
1,1230,61676
1,1231,61683
1,1232,61676
1,1233,61665
1,1234,61657
1,1235,61657
1,1236,61706
1,1237,61679
1,1238,61671
1,1239,61704
1,1240,61688
1,1241,61669
1,1242,61693
1,1243,61682
1,1244,61696
1,1245,61699
1,1246,61691
1,1247,61705
1,1248,61686
1,1249,61688
1,1250,61655
1,1251,61728
1,1252,61714
1,1253,61721
1,1254,61712
1,1255,61699
1,1256,61691
1,1257,61739
1,1258,61684
1,1259,61680
1,1260,61684
1,1261,61728
1,1262,61688
1,1263,61726
1,1264,61696
1,1265,61713
1,1266,61737
1,1267,61737
1,1268,61712
1,1269,61724
1,1270,61733
1,1271,61697
1,1272,61700
1,1273,61720
1,1274,61754
1,1275,61733
1,1276,61710
1,1277,61750
1,1278,61732
1,1279,61736
1,1280,61760
1,1281,61728
1,1282,61686
1,1283,61711
1,1284,61757
1,1285,61712
1,1286,61767
1,1287,61743
1,1288,61741
1,1289,61704
1,1290,61732
1,1291,61735
1,1292,61743
1,1293,61739
1,1294,61755
1,1295,61697
1,1296,61724
1,1297,61721
1,1298,61700
1,1299,61723
1,1300,61738
1,1301,61704
1,1302,61693
1,1303,61669
1,1304,61704
1,1305,61735
1,1306,61732
1,1307,61733
1,1308,61701
1,1309,61719
1,1310,61731
1,1311,61725
1,1312,61705
1,1313,61737
1,1314,61710
1,1315,61724
1,1316,61718
1,1317,61746
1,1318,61712
1,1319,61732
1,1320,61752
1,1321,61771
1,1322,61735
1,1323,61748
1,1324,61682
1,1325,61704
1,1326,61753
1,1327,61720
1,1328,61702
1,1329,61701
1,1330,61694
1,1331,61710
1,1332,61707
1,1333,61623
1,1334,61682
1,1335,61632
1,1336,61622
1,1337,61655
1,1338,61628
1,1339,61259
1,1340,70043
