1,1,61596
1,2,61621
1,3,61605
1,4,61596
1,5,61606
1,6,61603
1,7,61589
1,8,61622
1,9,61564
1,10,61587
1,11,61637
1,12,61640
1,13,61620
1,14,61628
1,15,61607
1,16,61566
1,17,61580
1,18,61630
1,19,61598
1,20,61620
1,21,61599
1,22,61625
1,23,61612
1,24,61612
1,25,61631
1,26,61606
1,27,61587
1,28,61618
1,29,61585
1,30,61645
1,31,61612
1,32,61592
1,33,61589
1,34,61641
1,35,61592
1,36,61590
1,37,61597
1,38,61579
1,39,61612
1,40,61577
1,41,61622
1,42,61570
1,43,61632
1,44,61571
1,45,61622
1,46,61631
1,47,61614
1,48,61607
1,49,61589
1,50,61607
1,51,61645
1,52,61588
1,53,61595
1,54,61640
1,55,61583
1,56,61661
1,57,61652
1,58,61583
1,59,61592
1,60,61627
1,61,61597
1,62,61617
1,63,61615
1,64,61603
1,65,61626
1,66,61642
1,67,61638
1,68,61633
1,69,61633
1,70,61604
1,71,61623
1,72,61608
1,73,61618
1,74,61570
1,75,61590
1,76,61633
1,77,61622
1,78,61570
1,79,61599
1,80,61654
1,81,61600
1,82,61568
1,83,61580
1,84,61596
1,85,61647
1,86,61609
1,87,61613
1,88,61625
1,89,61586
1,90,61626
1,91,61617
1,92,61582
1,93,61632
1,94,61602
1,95,61565
1,96,61617
1,97,61643
1,98,61564
1,99,61558
1,100,61612
1,101,61603
1,102,61635
1,103,61623
1,104,61632
1,105,61601
1,106,61599
1,107,61624
1,108,61586
1,109,61591
1,110,61632
1,111,61597
1,112,61574
1,113,61612
1,114,61612
1,115,61590
1,116,61612
1,117,61627
1,118,61617
1,119,61621
1,120,61629
1,121,61622
1,122,61612
1,123,61618
1,124,61620
1,125,61637
1,126,61626
1,127,61608
1,128,61596
1,129,61602
1,130,61629
1,131,61601
1,132,61594
1,133,61603
1,134,61618
1,135,61590
1,136,61621
1,137,61652
1,138,61604
1,139,61598
1,140,61666
1,141,61575
1,142,61592
1,143,61605
1,144,61612
1,145,61612
1,146,61611
1,147,61632
1,148,61639
1,149,61600
1,150,61590
1,151,61626
1,152,61613
1,153,61628
1,154,61643
1,155,61581
1,156,61603
1,157,61619
1,158,61612
1,159,61591
1,160,61602
1,161,61642
1,162,61604
1,163,61624
1,164,61633
1,165,61604
1,166,61571
1,167,61566
1,168,61628
1,169,61588
1,170,61623
1,171,61606
1,172,61608
1,173,61568
1,174,61672
1,175,61598
1,176,61614
1,177,61592
1,178,61654
1,179,61645
1,180,61621
1,181,61593
1,182,61650
1,183,61593
1,184,61616
1,185,61631
1,186,61594
1,187,61595
1,188,61579
1,189,61613
1,190,61622
1,191,61632
1,192,61585
1,193,61594
1,194,61633
1,195,61650
1,196,61623
1,197,61640
1,198,61634
1,199,61607
1,200,61574
1,201,61611
1,202,61637
1,203,61626
1,204,61618
1,205,61597
1,206,61619
1,207,61620
1,208,61628
1,209,61612
1,210,61581
1,211,61646
1,212,61566
1,213,61580
1,214,61598
1,215,61614
1,216,61592
1,217,61617
1,218,61598
1,219,61627
1,220,61631
1,221,61602
1,222,61605
1,223,61590
1,224,61567
1,225,61629
1,226,61614
1,227,61614
1,228,61593
1,229,61584
1,230,61619
1,231,61655
1,232,61590
1,233,61590
1,234,61622
1,235,61621
1,236,61648
1,237,61664
1,238,61574
1,239,61663
1,240,61667
1,241,61607
1,242,61631
1,243,61594
1,244,61584
1,245,61627
1,246,61575
1,247,61579
1,248,61633
1,249,61609
1,250,61640
1,251,61599
1,252,61561
1,253,61661
1,254,61594
1,255,61558
1,256,61622
1,257,61643
1,258,61587
1,259,61626
1,260,61567
1,261,61594
1,262,61614
1,263,61583
1,264,61607
1,265,61656
1,266,61604
1,267,61612
1,268,61637
1,269,61608
1,270,61617
1,271,61597
1,272,61601
1,273,61560
1,274,61618
1,275,61604
1,276,61592
1,277,61607
1,278,61625
1,279,61595
1,280,61595
1,281,61608
1,282,61598
1,283,61621
1,284,61592
1,285,61631
1,286,61606
1,287,61602
1,288,61580
1,289,61603
1,290,61596
1,291,61608
1,292,61609
1,293,61598
1,294,61608
1,295,61583
1,296,61570
1,297,61603
1,298,61576
1,299,61655
1,300,61625
1,301,61625
1,302,61606
1,303,61584
1,304,61594
1,305,61596
1,306,61593
1,307,61618
1,308,61636
1,309,61572
1,310,61627
1,311,61636
1,312,61606
1,313,61609
1,314,61634
1,315,61598
1,316,61621
1,317,61623
1,318,61604
1,319,61634
1,320,61584
1,321,61601
1,322,61624
1,323,61591
1,324,61599
1,325,61616
1,326,61574
1,327,61593
1,328,61587
1,329,61618
1,330,61625
1,331,61618
1,332,61590
1,333,61636
1,334,61630
1,335,61619
1,336,61625
1,337,61619
1,338,61610
1,339,61660
1,340,61615
1,341,61614
1,342,61641
1,343,61602
1,344,61620
1,345,61664
1,346,61581
1,347,61599
1,348,61628
1,349,61583
1,350,61639
1,351,61604
1,352,61614
1,353,61641
1,354,61604
1,355,61604
1,356,61636
1,357,61621
1,358,61643
1,359,61597
1,360,61565
1,361,61623
1,362,61618
1,363,61577
1,364,61603
1,365,61628
1,366,61653
1,367,61574
1,368,61619
1,369,61545
1,370,61627
1,371,61596
1,372,61607
1,373,61637
1,374,61619
1,375,61621
1,376,61615
1,377,61607
1,378,61589
1,379,61607
1,380,61608
1,381,61614
1,382,61640
1,383,61611
1,384,61605
1,385,61612
1,386,61590
1,387,61638
1,388,61627
1,389,61579
1,390,61602
1,391,61604
1,392,61577
1,393,61624
1,394,61608
1,395,61583
1,396,61554
1,397,61637
1,398,61603
1,399,61585
1,400,61609
1,401,61629
1,402,61640
1,403,61570
1,404,61596
1,405,61616
1,406,61625
1,407,61626
1,408,61631
1,409,61610
1,410,61629
1,411,61634
1,412,61605
1,413,61574
1,414,61629
1,415,61627
1,416,61622
1,417,61586
1,418,61595
1,419,61616
1,420,61572
1,421,61604
1,422,61563
1,423,61585
1,424,61599
1,425,61610
1,426,61628
1,427,61585
1,428,61588
1,429,61565
1,430,61583
1,431,61600
1,432,61606
1,433,61614
1,434,61659
1,435,61596
1,436,61615
1,437,61621
1,438,61634
1,439,61587
1,440,61580
1,441,61600
1,442,61625
1,443,61599
1,444,61622
1,445,61600
1,446,61593
1,447,61605
1,448,61625
1,449,61597
1,450,61611
1,451,61634
1,452,61573
1,453,61618
1,454,61614
1,455,61613
1,456,61622
1,457,61586
1,458,61611
1,459,61606
1,460,61637
1,461,61582
1,462,61629
1,463,61640
1,464,61616
1,465,61634
1,466,61553
1,467,61571
1,468,61643
1,469,61625
1,470,61616
1,471,61696
1,472,61604
1,473,61587
1,474,61610
1,475,61595
1,476,61607
1,477,61609
1,478,61580
1,479,61598
1,480,61625
1,481,61591
1,482,61595
1,483,61596
1,484,61634
1,485,61627
1,486,61569
1,487,61558
1,488,61667
1,489,61616
1,490,61622
1,491,61609
1,492,61608
1,493,61619
1,494,61626
1,495,61618
1,496,61632
1,497,61570
1,498,61632
1,499,61672
1,500,61612
1,501,61596
1,502,61644
1,503,61613
1,504,61601
1,505,61599
1,506,61602
1,507,61619
1,508,61605
1,509,61637
1,510,61596
1,511,61619
1,512,61615
1,513,61609
1,514,61592
1,515,61582
1,516,61618
1,517,61620
1,518,61630
1,519,61613
1,520,61604
1,521,61610
1,522,61614
1,523,61539
1,524,61575
1,525,61613
1,526,61595
1,527,61645
1,528,61628
1,529,61601
1,530,61578
1,531,61619
1,532,61574
1,533,61599
1,534,61628
1,535,61645
1,536,61566
1,537,61596
1,538,61651
1,539,61652
1,540,61595
1,541,61603
1,542,61627
1,543,61592
1,544,61632
1,545,61627
1,546,61605
1,547,61598
1,548,61623
1,549,61603
1,550,61593
1,551,61672
1,552,61616
1,553,61594
1,554,61642
1,555,61617
1,556,61611
1,557,61603
1,558,61600
1,559,61595
1,560,61593
1,561,61637
1,562,61628
1,563,61612
1,564,61611
1,565,61618
1,566,61591
1,567,61591
1,568,61649
1,569,61603
1,570,61589
1,571,61605
1,572,61629
1,573,61634
1,574,61563
1,575,61645
1,576,61633
1,577,61620
1,578,61580
1,579,61630
1,580,61590
1,581,61602
1,582,61643
1,583,61587
1,584,61656
1,585,61596
1,586,61584
1,587,61595
1,588,61648
1,589,61620
1,590,61595
1,591,61632
1,592,61619
1,593,61596
1,594,61603
1,595,61615
1,596,61625
1,597,61599
1,598,61640
1,599,61643
1,600,61603
1,601,61587
1,602,61602
1,603,61580
1,604,61638
1,605,61599
1,606,61591
1,607,61598
1,608,61623
1,609,61553
1,610,61599
1,611,61625
1,612,61619
1,613,61618
1,614,61578
1,615,61596
1,616,61601
1,617,61646
1,618,61599
1,619,61621
1,620,61630
1,621,61612
1,622,61604
1,623,61616
1,624,61599
1,625,61601
1,626,61578
1,627,61625
1,628,61665
1,629,61592
1,630,61627
1,631,61631
1,632,61638
1,633,61662
1,634,61670
1,635,61628
1,636,61632
1,637,61623
1,638,61616
1,639,61596
1,640,61587
1,641,61633
1,642,61667
1,643,61575
1,644,61620
1,645,61644
1,646,61613
1,647,61580
1,648,61624
1,649,61618
1,650,61599
1,651,61598
1,652,61595
1,653,61637
1,654,61584
1,655,61614
1,656,61635
1,657,61589
1,658,61640
1,659,61620
1,660,61606
1,661,61616
1,662,61601
1,663,61599
1,664,61617
1,665,61639
1,666,61641
1,667,61616
1,668,61618
1,669,61605
1,670,61625
1,671,61617
1,672,61594
1,673,61608
1,674,61589
1,675,61584
1,676,61615
1,677,61600
1,678,61643
1,679,61638
1,680,61577
1,681,61580
1,682,61616
1,683,61598
1,684,61598
1,685,61603
1,686,61591
1,687,61591
1,688,61584
1,689,61608
1,690,61642
1,691,61585
1,692,61622
1,693,61574
1,694,61578
1,695,61586
1,696,61593
1,697,61594
1,698,61651
1,699,61609
1,700,61625
1,701,61595
1,702,61629
1,703,61624
1,704,61594
1,705,61650
1,706,61596
1,707,61615
1,708,61635
1,709,61597
1,710,61648
1,711,61654
1,712,61572
1,713,61627
1,714,61601
1,715,61587
1,716,61593
1,717,61638
1,718,61610
1,719,61649
1,720,61638
1,721,61629
1,722,61599
1,723,61611
1,724,61629
1,725,61608
1,726,61606
1,727,61611
1,728,61616
1,729,61632
1,730,61620
1,731,61599
1,732,61597
1,733,61634
1,734,61581
1,735,61607
1,736,61661
1,737,61593
1,738,61618
1,739,61596
1,740,61613
1,741,61624
1,742,61590
1,743,61598
1,744,61633
1,745,61596
1,746,61608
1,747,61606
1,748,61584
1,749,61593
1,750,61601
1,751,61610
1,752,61591
1,753,61659
1,754,61608
1,755,61586
1,756,61601
1,757,61546
1,758,61591
1,759,61625
1,760,61592
1,761,61626
1,762,61594
1,763,61604
1,764,61611
1,765,61581
1,766,61619
1,767,61612
1,768,61609
1,769,61631
1,770,61630
1,771,61601
1,772,61643
1,773,61643
1,774,61606
1,775,61608
1,776,61609
1,777,61622
1,778,61640
1,779,61606
1,780,61584
1,781,61645
1,782,61589
1,783,61600
1,784,61607
1,785,61581
1,786,61596
1,787,61623
1,788,61593
1,789,61622
1,790,61615
1,791,61618
1,792,61625
1,793,61626
1,794,61627
1,795,61591
1,796,61575
1,797,61583
1,798,61572
1,799,61626
1,800,61618
1,801,61592
1,802,61646
1,803,61588
1,804,61676
1,805,61599
1,806,61616
1,807,61664
1,808,61593
1,809,61587
1,810,61611
1,811,61578
1,812,61599
1,813,61665
1,814,61575
1,815,61603
1,816,61641
1,817,61556
1,818,61613
1,819,61628
1,820,61606
1,821,61601
1,822,61580
1,823,61580
1,824,61635
1,825,61646
1,826,61613
1,827,61634
1,828,61591
1,829,61615
1,830,61635
1,831,61632
1,832,61641
1,833,61625
1,834,61565
1,835,61609
1,836,61581
1,837,61609
1,838,61602
1,839,61613
1,840,61627
1,841,61617
1,842,61638
1,843,61602
1,844,61631
1,845,61620
1,846,61613
1,847,61630
1,848,61586
1,849,61653
1,850,61657
1,851,61623
1,852,61606
1,853,61617
1,854,61622
1,855,61620
1,856,61682
1,857,61626
1,858,61602
1,859,61637
1,860,61640
1,861,61621
1,862,61615
1,863,61639
1,864,61594
1,865,61630
1,866,61643
1,867,61628
1,868,61583
1,869,61638
1,870,61608
1,871,61618
1,872,61628
1,873,61641
1,874,61612
1,875,61646
1,876,61627
1,877,61582
1,878,61627
1,879,61668
1,880,61597
1,881,61566
1,882,61595
1,883,61605
1,884,61623
1,885,61625
1,886,61640
1,887,61633
1,888,61645
1,889,61667
1,890,61624
1,891,61588
1,892,61604
1,893,61655
1,894,61594
1,895,61636
1,896,61618
1,897,61592
1,898,61624
1,899,61603
1,900,61584
1,901,61636
1,902,61602
1,903,61576
1,904,61644
1,905,61629
1,906,61590
1,907,61619
1,908,61594
1,909,61641
1,910,61631
1,911,61599
1,912,61648
1,913,61650
1,914,61629
1,915,61633
1,916,61613
1,917,61604
1,918,61623
1,919,61634
1,920,61599
1,921,61611
1,922,61641
1,923,61598
1,924,61632
1,925,61638
1,926,61597
1,927,61608
1,928,61599
1,929,61624
1,930,61600
1,931,61578
1,932,61627
1,933,61618
1,934,61610
1,935,61668
1,936,61640
1,937,61582
1,938,61613
1,939,61631
1,940,61617
1,941,61664
1,942,61626
1,943,61594
1,944,61593
1,945,61593
1,946,61622
1,947,61666
1,948,61618
1,949,61611
1,950,61622
1,951,61592
1,952,61611
1,953,61649
1,954,61587
1,955,61615
1,956,61628
1,957,61585
1,958,61603
1,959,61633
1,960,61630
1,961,61610
1,962,61633
1,963,61610
1,964,61600
1,965,61637
1,966,61605
1,967,61599
1,968,61591
1,969,61569
1,970,61624
1,971,61607
1,972,61587
1,973,61609
1,974,61610
1,975,61627
1,976,61644
1,977,61586
1,978,61631
1,979,61625
1,980,61622
1,981,61629
1,982,61644
1,983,61604
1,984,61604
1,985,61595
1,986,61614
1,987,61659
1,988,61575
1,989,61630
1,990,61647
1,991,61608
1,992,61645
1,993,61617
1,994,61670
1,995,61621
1,996,61661
1,997,61631
1,998,61608
1,999,61626
1,1000,61568
1,1001,61643
1,1002,61654
1,1003,61590
1,1004,61672
1,1005,61616
1,1006,61676
1,1007,61635
1,1008,61590
1,1009,61633
1,1010,61645
1,1011,61599
1,1012,61628
1,1013,61586
1,1014,61630
1,1015,61662
1,1016,61593
1,1017,61611
1,1018,61608
1,1019,61650
1,1020,61605
1,1021,61633
1,1022,61616
1,1023,61606
1,1024,61598
1,1025,61596
1,1026,61636
1,1027,61655
1,1028,61660
1,1029,61626
1,1030,61648
1,1031,61620
1,1032,61613
1,1033,61647
1,1034,61607
1,1035,61625
1,1036,61656
1,1037,61583
1,1038,61626
1,1039,61646
1,1040,61600
1,1041,61661
1,1042,61599
1,1043,61649
1,1044,61612
1,1045,61622
1,1046,61657
1,1047,61679
1,1048,61611
1,1049,61653
1,1050,61671
1,1051,61643
1,1052,61622
1,1053,61598
1,1054,61584
1,1055,61630
1,1056,61670
1,1057,61573
1,1058,61639
1,1059,61608
1,1060,61614
1,1061,61616
1,1062,61613
1,1063,61627
1,1064,61617
1,1065,61601
1,1066,61610
1,1067,61654
1,1068,61605
1,1069,61608
1,1070,61634
1,1071,61610
1,1072,61636
1,1073,61665
1,1074,61598
1,1075,61637
1,1076,61610
1,1077,61613
1,1078,61613
1,1079,61575
1,1080,61617
1,1081,61638
1,1082,61645
1,1083,61655
1,1084,61621
1,1085,61600
1,1086,61653
1,1087,61649
1,1088,61581
1,1089,61602
1,1090,61632
1,1091,61619
1,1092,61585
1,1093,61577
1,1094,61630
1,1095,61609
1,1096,61638
1,1097,61603
1,1098,61612
1,1099,61603
1,1100,61596
1,1101,61612
1,1102,61615
1,1103,61619
1,1104,61626
1,1105,61646
1,1106,61625
1,1107,61612
1,1108,61580
1,1109,61571
1,1110,61658
1,1111,61613
1,1112,61608
1,1113,61604
1,1114,61647
1,1115,61657
1,1116,61619
1,1117,61633
1,1118,61653
1,1119,61656
1,1120,61637
1,1121,61663
1,1122,61629
1,1123,61622
1,1124,61681
1,1125,61619
1,1126,61601
1,1127,61667
1,1128,61628
1,1129,61637
1,1130,61665
1,1131,61651
1,1132,61700
1,1133,61627
1,1134,61605
1,1135,61653
1,1136,61659
1,1137,61623
1,1138,61635
1,1139,61655
1,1140,61649
1,1141,61617
1,1142,61610
1,1143,61669
1,1144,61670
1,1145,61681
1,1146,61622
1,1147,61679
1,1148,61610
1,1149,61616
1,1150,61628
1,1151,61617
1,1152,61640
1,1153,61629
1,1154,61613
1,1155,61624
1,1156,61647
1,1157,61646
1,1158,61668
1,1159,61642
1,1160,61645
1,1161,61702
1,1162,61622
1,1163,61638
1,1164,61621
1,1165,61620
1,1166,61635
1,1167,61649
1,1168,61645
1,1169,61636
1,1170,61677
1,1171,61603
1,1172,61646
1,1173,61656
1,1174,61639
1,1175,61662
1,1176,61597
1,1177,61652
1,1178,61609
1,1179,61618
1,1180,61610
1,1181,61621
1,1182,61630
1,1183,61662
1,1184,61627
1,1185,61619
1,1186,61620
1,1187,61646
1,1188,61638
1,1189,61622
1,1190,61638
1,1191,61629
1,1192,61629
1,1193,61624
1,1194,61619
1,1195,61657
1,1196,61634
1,1197,61659
1,1198,61631
1,1199,61654
1,1200,61662
1,1201,61646
1,1202,61603
1,1203,61674
1,1204,61637
1,1205,61655
1,1206,61656
1,1207,61618
1,1208,61676
1,1209,61628
1,1210,61638
1,1211,61632
1,1212,61607
1,1213,61690
1,1214,61622
1,1215,61658
1,1216,61670
1,1217,61631
1,1218,61668
1,1219,61640
1,1220,61657
1,1221,61638
1,1222,61617
1,1223,61677
1,1224,61676
1,1225,61622
1,1226,61666
1,1227,61648
1,1228,61650
1,1229,61666
1,1230,61648
1,1231,61654
1,1232,61674
1,1233,61707
1,1234,61638
1,1235,61643
1,1236,61699
1,1237,61666
1,1238,61679
1,1239,61654
1,1240,61664
1,1241,61717
1,1242,61668
1,1243,61664
1,1244,61691
1,1245,61673
1,1246,61713
1,1247,61706
1,1248,61664
1,1249,61740
1,1250,61703
1,1251,61666
1,1252,61693
1,1253,61685
1,1254,61684
1,1255,61718
1,1256,61658
1,1257,61687
1,1258,61695
1,1259,61669
1,1260,61712
1,1261,61697
1,1262,61654
1,1263,61663
1,1264,61705
1,1265,61731
1,1266,61735
1,1267,61704
1,1268,61715
1,1269,61686
1,1270,61750
1,1271,61710
1,1272,61721
1,1273,61704
1,1274,61720
1,1275,61719
1,1276,61705
1,1277,61704
1,1278,61730
1,1279,61714
1,1280,61760
1,1281,61716
1,1282,61698
1,1283,61764
1,1284,61736
1,1285,61714
1,1286,61726
1,1287,61728
1,1288,61675
1,1289,61743
1,1290,61735
1,1291,61738
1,1292,61724
1,1293,61717
1,1294,61699
1,1295,61744
1,1296,61705
1,1297,61663
1,1298,61730
1,1299,61721
1,1300,61725
1,1301,61728
1,1302,61699
1,1303,61719
1,1304,61802
1,1305,61734
1,1306,61689
1,1307,61736
1,1308,61699
1,1309,61732
1,1310,61738
1,1311,61727
1,1312,61710
1,1313,61713
1,1314,61712
1,1315,61698
1,1316,61710
1,1317,61765
1,1318,61761
1,1319,61687
1,1320,61713
1,1321,61741
1,1322,61696
1,1323,61712
1,1324,61725
1,1325,61714
1,1326,61733
1,1327,61704
1,1328,61713
1,1329,61708
1,1330,61668
1,1331,61671
1,1332,61697
1,1333,61655
1,1334,61694
1,1335,61612
1,1336,61542
1,1337,61608
1,1338,61603
1,1339,61224
1,1340,70057
