1,1,61630
1,2,61636
1,3,61621
1,4,61634
1,5,61591
1,6,61673
1,7,61662
1,8,61640
1,9,61630
1,10,61665
1,11,61647
1,12,61614
1,13,61645
1,14,61588
1,15,61656
1,16,61621
1,17,61631
1,18,61619
1,19,61669
1,20,61635
1,21,61628
1,22,61647
1,23,61637
1,24,61639
1,25,61597
1,26,61644
1,27,61635
1,28,61621
1,29,61638
1,30,61646
1,31,61638
1,32,61645
1,33,61608
1,34,61594
1,35,61614
1,36,61614
1,37,61647
1,38,61636
1,39,61626
1,40,61633
1,41,61650
1,42,61651
1,43,61648
1,44,61625
1,45,61651
1,46,61653
1,47,61637
1,48,61653
1,49,61625
1,50,61633
1,51,61626
1,52,61627
1,53,61606
1,54,61609
1,55,61654
1,56,61659
1,57,61648
1,58,61628
1,59,61657
1,60,61655
1,61,61639
1,62,61644
1,63,61602
1,64,61617
1,65,61650
1,66,61627
1,67,61624
1,68,61607
1,69,61649
1,70,61663
1,71,61621
1,72,61618
1,73,61670
1,74,61639
1,75,61614
1,76,61647
1,77,61616
1,78,61634
1,79,61634
1,80,61622
1,81,61631
1,82,61675
1,83,61634
1,84,61691
1,85,61630
1,86,61635
1,87,61623
1,88,61603
1,89,61604
1,90,61629
1,91,61648
1,92,61634
1,93,61660
1,94,61650
1,95,61622
1,96,61613
1,97,61617
1,98,61661
1,99,61628
1,100,61625
1,101,61646
1,102,61611
1,103,61625
1,104,61654
1,105,61628
1,106,61610
1,107,61657
1,108,61663
1,109,61644
1,110,61611
1,111,61666
1,112,61672
1,113,61637
1,114,61615
1,115,61641
1,116,61652
1,117,61646
1,118,61593
1,119,61612
1,120,61638
1,121,61648
1,122,61636
1,123,61667
1,124,61623
1,125,61634
1,126,61601
1,127,61659
1,128,61614
1,129,61592
1,130,61647
1,131,61633
1,132,61616
1,133,61647
1,134,61624
1,135,61665
1,136,61643
1,137,61615
1,138,61651
1,139,61636
1,140,61649
1,141,61649
1,142,61600
1,143,61623
1,144,61626
1,145,61632
1,146,61620
1,147,61572
1,148,61626
1,149,61618
1,150,61628
1,151,61630
1,152,61598
1,153,61641
1,154,61655
1,155,61644
1,156,61641
1,157,61585
1,158,61650
1,159,61632
1,160,61646
1,161,61632
1,162,61574
1,163,61586
1,164,61642
1,165,61624
1,166,61612
1,167,61630
1,168,61609
1,169,61643
1,170,61669
1,171,61656
1,172,61623
1,173,61619
1,174,61634
1,175,61619
1,176,61654
1,177,61649
1,178,61627
1,179,61608
1,180,61636
1,181,61638
1,182,61597
1,183,61634
1,184,61619
1,185,61646
1,186,61643
1,187,61634
1,188,61609
1,189,61615
1,190,61618
1,191,61637
1,192,61632
1,193,61629
1,194,61634
1,195,61646
1,196,61655
1,197,61645
1,198,61629
1,199,61651
1,200,61650
1,201,61610
1,202,61628
1,203,61666
1,204,61605
1,205,61633
1,206,61594
1,207,61638
1,208,61627
1,209,61641
1,210,61623
1,211,61631
1,212,61613
1,213,61655
1,214,61680
1,215,61607
1,216,61644
1,217,61636
1,218,61635
1,219,61666
1,220,61690
1,221,61616
1,222,61633
1,223,61628
1,224,61633
1,225,61576
1,226,61628
1,227,61637
1,228,61609
1,229,61638
1,230,61642
1,231,61635
1,232,61604
1,233,61656
1,234,61641
1,235,61619
1,236,61599
1,237,61636
1,238,61624
1,239,61668
1,240,61680
1,241,61637
1,242,61645
1,243,61616
1,244,61635
1,245,61627
1,246,61652
1,247,61639
1,248,61615
1,249,61615
1,250,61628
1,251,61624
1,252,61638
1,253,61649
1,254,61661
1,255,61656
1,256,61623
1,257,61656
1,258,61615
1,259,61660
1,260,61598
1,261,61590
1,262,61624
1,263,61649
1,264,61645
1,265,61659
1,266,61618
1,267,61601
1,268,61629
1,269,61664
1,270,61619
1,271,61625
1,272,61596
1,273,61649
1,274,61665
1,275,61582
1,276,61592
1,277,61646
1,278,61628
1,279,61654
1,280,61650
1,281,61618
1,282,61656
1,283,61630
1,284,61636
1,285,61630
1,286,61612
1,287,61636
1,288,61645
1,289,61642
1,290,61630
1,291,61641
1,292,61618
1,293,61648
1,294,61624
1,295,61619
1,296,61609
1,297,61643
1,298,61615
1,299,61651
1,300,61614
1,301,61626
1,302,61667
1,303,61685
1,304,61641
1,305,61665
1,306,61601
1,307,61643
1,308,61609
1,309,61637
1,310,61630
1,311,61626
1,312,61638
1,313,61681
1,314,61599
1,315,61614
1,316,61616
1,317,61650
1,318,61646
1,319,61651
1,320,61665
1,321,61643
1,322,61637
1,323,61636
1,324,61645
1,325,61630
1,326,61573
1,327,61580
1,328,61646
1,329,61636
1,330,61624
1,331,61618
1,332,61615
1,333,61632
1,334,61641
1,335,61614
1,336,61646
1,337,61657
1,338,61616
1,339,61605
1,340,61646
1,341,61597
1,342,61617
1,343,61636
1,344,61625
1,345,61637
1,346,61603
1,347,61630
1,348,61632
1,349,61622
1,350,61647
1,351,61627
1,352,61631
1,353,61629
1,354,61611
1,355,61654
1,356,61651
1,357,61643
1,358,61612
1,359,61639
1,360,61642
1,361,61647
1,362,61657
1,363,61644
1,364,61655
1,365,61628
1,366,61616
1,367,61695
1,368,61679
1,369,61656
1,370,61620
1,371,61650
1,372,61675
1,373,61640
1,374,61632
1,375,61672
1,376,61643
1,377,61667
1,378,61637
1,379,61652
1,380,61649
1,381,61657
1,382,61648
1,383,61637
1,384,61608
1,385,61607
1,386,61624
1,387,61669
1,388,61652
1,389,61637
1,390,61614
1,391,61640
1,392,61642
1,393,61632
1,394,61562
1,395,61639
1,396,61630
1,397,61593
1,398,61668
1,399,61667
1,400,61601
1,401,61630
1,402,61681
1,403,61635
1,404,61647
1,405,61644
1,406,61637
1,407,61624
1,408,61659
1,409,61608
1,410,61646
1,411,61635
1,412,61612
1,413,61636
1,414,61635
1,415,61629
1,416,61607
1,417,61670
1,418,61596
1,419,61605
1,420,61648
1,421,61672
1,422,61627
1,423,61648
1,424,61654
1,425,61646
1,426,61625
1,427,61612
1,428,61641
1,429,61668
1,430,61580
1,431,61624
1,432,61614
1,433,61645
1,434,61659
1,435,61619
1,436,61610
1,437,61675
1,438,61624
1,439,61612
1,440,61611
1,441,61617
1,442,61623
1,443,61630
1,444,61640
1,445,61610
1,446,61645
1,447,61638
1,448,61638
1,449,61665
1,450,61655
1,451,61696
1,452,61625
1,453,61624
1,454,61652
1,455,61631
1,456,61628
1,457,61653
1,458,61624
1,459,61622
1,460,61609
1,461,61637
1,462,61663
1,463,61671
1,464,61671
1,465,61649
1,466,61663
1,467,61639
1,468,61644
1,469,61616
1,470,61626
1,471,61653
1,472,61626
1,473,61623
1,474,61611
1,475,61635
1,476,61625
1,477,61623
1,478,61673
1,479,61603
1,480,61630
1,481,61627
1,482,61645
1,483,61646
1,484,61623
1,485,61646
1,486,61624
1,487,61607
1,488,61623
1,489,61656
1,490,61632
1,491,61641
1,492,61621
1,493,61637
1,494,61628
1,495,61634
1,496,61611
1,497,61638
1,498,61646
1,499,61581
1,500,61633
1,501,61669
1,502,61654
1,503,61655
1,504,61643
1,505,61659
1,506,61660
1,507,61655
1,508,61636
1,509,61639
1,510,61635
1,511,61645
1,512,61641
1,513,61592
1,514,61628
1,515,61641
1,516,61617
1,517,61600
1,518,61649
1,519,61644
1,520,61664
1,521,61657
1,522,61669
1,523,61627
1,524,61614
1,525,61629
1,526,61612
1,527,61693
1,528,61661
1,529,61664
1,530,61630
1,531,61638
1,532,61610
1,533,61646
1,534,61634
1,535,61671
1,536,61608
1,537,61608
1,538,61628
1,539,61613
1,540,61623
1,541,61679
1,542,61636
1,543,61627
1,544,61578
1,545,61626
1,546,61663
1,547,61634
1,548,61625
1,549,61632
1,550,61638
1,551,61648
1,552,61668
1,553,61639
1,554,61640
1,555,61657
1,556,61647
1,557,61634
1,558,61621
1,559,61622
1,560,61624
1,561,61665
1,562,61635
1,563,61647
1,564,61635
1,565,61648
1,566,61630
1,567,61626
1,568,61657
1,569,61646
1,570,61653
1,571,61649
1,572,61653
1,573,61649
1,574,61679
1,575,61608
1,576,61612
1,577,61619
1,578,61644
1,579,61628
1,580,61637
1,581,61664
1,582,61680
1,583,61650
1,584,61616
1,585,61631
1,586,61606
1,587,61646
1,588,61619
1,589,61618
1,590,61640
1,591,61616
1,592,61668
1,593,61665
1,594,61657
1,595,61648
1,596,61610
1,597,61650
1,598,61656
1,599,61664
1,600,61634
1,601,61600
1,602,61632
1,603,61631
1,604,61619
1,605,61637
1,606,61658
1,607,61675
1,608,61651
1,609,61630
1,610,61630
1,611,61662
1,612,61606
1,613,61656
1,614,61663
1,615,61614
1,616,61644
1,617,61636
1,618,61617
1,619,61679
1,620,61624
1,621,61659
1,622,61622
1,623,61619
1,624,61630
1,625,61612
1,626,61658
1,627,61660
1,628,61625
1,629,61652
1,630,61621
1,631,61640
1,632,61658
1,633,61603
1,634,61641
1,635,61638
1,636,61626
1,637,61629
1,638,61658
1,639,61611
1,640,61613
1,641,61662
1,642,61683
1,643,61664
1,644,61594
1,645,61643
1,646,61608
1,647,61592
1,648,61602
1,649,61614
1,650,61625
1,651,61657
1,652,61647
1,653,61638
1,654,61634
1,655,61598
1,656,61647
1,657,61601
1,658,61629
1,659,61609
1,660,61652
1,661,61654
1,662,61648
1,663,61684
1,664,61647
1,665,61661
1,666,61635
1,667,61624
1,668,61658
1,669,61637
1,670,61610
1,671,61624
1,672,61626
1,673,61619
1,674,61646
1,675,61635
1,676,61634
1,677,61641
1,678,61623
1,679,61641
1,680,61636
1,681,61658
1,682,61651
1,683,61683
1,684,61640
1,685,61631
1,686,61615
1,687,61649
1,688,61638
1,689,61641
1,690,61613
1,691,61647
1,692,61655
1,693,61610
1,694,61650
1,695,61642
1,696,61709
1,697,61624
1,698,61650
1,699,61633
1,700,61641
1,701,61656
1,702,61679
1,703,61628
1,704,61630
1,705,61637
1,706,61635
1,707,61633
1,708,61621
1,709,61646
1,710,61624
1,711,61664
1,712,61656
1,713,61644
1,714,61618
1,715,61630
1,716,61632
1,717,61674
1,718,61616
1,719,61636
1,720,61658
1,721,61632
1,722,61657
1,723,61624
1,724,61621
1,725,61629
1,726,61611
1,727,61662
1,728,61621
1,729,61667
1,730,61674
1,731,61652
1,732,61629
1,733,61653
1,734,61646
1,735,61650
1,736,61636
1,737,61650
1,738,61629
1,739,61652
1,740,61653
1,741,61653
1,742,61648
1,743,61618
1,744,61618
1,745,61637
1,746,61609
1,747,61653
1,748,61624
1,749,61647
1,750,61619
1,751,61664
1,752,61649
1,753,61646
1,754,61653
1,755,61630
1,756,61591
1,757,61600
1,758,61668
1,759,61690
1,760,61653
1,761,61625
1,762,61640
1,763,61677
1,764,61648
1,765,61611
1,766,61623
1,767,61643
1,768,61656
1,769,61617
1,770,61631
1,771,61633
1,772,61656
1,773,61668
1,774,61611
1,775,61653
1,776,61610
1,777,61648
1,778,61644
1,779,61641
1,780,61627
1,781,61672
1,782,61657
1,783,61635
1,784,61674
1,785,61673
1,786,61649
1,787,61625
1,788,61617
1,789,61672
1,790,61673
1,791,61641
1,792,61672
1,793,61648
1,794,61667
1,795,61627
1,796,61618
1,797,61622
1,798,61663
1,799,61648
1,800,61643
1,801,61642
1,802,61640
1,803,61607
1,804,61612
1,805,61662
1,806,61608
1,807,61612
1,808,61644
1,809,61610
1,810,61641
1,811,61650
1,812,61637
1,813,61614
1,814,61685
1,815,61626
1,816,61638
1,817,61630
1,818,61635
1,819,61680
1,820,61666
1,821,61650
1,822,61633
1,823,61653
1,824,61649
1,825,61660
1,826,61666
1,827,61614
1,828,61632
1,829,61645
1,830,61660
1,831,61660
1,832,61624
1,833,61599
1,834,61631
1,835,61651
1,836,61658
1,837,61646
1,838,61653
1,839,61636
1,840,61637
1,841,61672
1,842,61633
1,843,61641
1,844,61608
1,845,61658
1,846,61673
1,847,61645
1,848,61655
1,849,61618
1,850,61656
1,851,61629
1,852,61625
1,853,61593
1,854,61666
1,855,61646
1,856,61631
1,857,61641
1,858,61635
1,859,61628
1,860,61639
1,861,61668
1,862,61651
1,863,61605
1,864,61640
1,865,61606
1,866,61646
1,867,61664
1,868,61634
1,869,61643
1,870,61632
1,871,61644
1,872,61660
1,873,61667
1,874,61647
1,875,61656
1,876,61649
1,877,61646
1,878,61619
1,879,61641
1,880,61664
1,881,61644
1,882,61613
1,883,61651
1,884,61626
1,885,61634
1,886,61650
1,887,61645
1,888,61658
1,889,61630
1,890,61629
1,891,61662
1,892,61670
1,893,61630
1,894,61632
1,895,61667
1,896,61641
1,897,61646
1,898,61650
1,899,61648
1,900,61648
1,901,61632
1,902,61636
1,903,61634
1,904,61643
1,905,61655
1,906,61640
1,907,61659
1,908,61643
1,909,61652
1,910,61655
1,911,61613
1,912,61633
1,913,61662
1,914,61694
1,915,61652
1,916,61654
1,917,61643
1,918,61627
1,919,61672
1,920,61695
1,921,61640
1,922,61657
1,923,61631
1,924,61613
1,925,61661
1,926,61642
1,927,61625
1,928,61673
1,929,61709
1,930,61631
1,931,61635
1,932,61637
1,933,61687
1,934,61661
1,935,61642
1,936,61636
1,937,61596
1,938,61613
1,939,61654
1,940,61627
1,941,61666
1,942,61634
1,943,61618
1,944,61621
1,945,61667
1,946,61637
1,947,61675
1,948,61607
1,949,61623
1,950,61651
1,951,61624
1,952,61641
1,953,61616
1,954,61627
1,955,61659
1,956,61625
1,957,61685
1,958,61592
1,959,61609
1,960,61661
1,961,61662
1,962,61608
1,963,61650
1,964,61603
1,965,61631
1,966,61612
1,967,61647
1,968,61654
1,969,61619
1,970,61634
1,971,61623
1,972,61637
1,973,61676
1,974,61631
1,975,61666
1,976,61631
1,977,61657
1,978,61664
1,979,61649
1,980,61662
1,981,61636
1,982,61660
1,983,61644
1,984,61634
1,985,61663
1,986,61638
1,987,61583
1,988,61648
1,989,61669
1,990,61609
1,991,61622
1,992,61645
1,993,61644
1,994,61663
1,995,61644
1,996,61646
1,997,61666
1,998,61640
1,999,61660
1,1000,61674
1,1001,61626
1,1002,61656
1,1003,61661
1,1004,61657
1,1005,61666
1,1006,61681
1,1007,61647
1,1008,61678
1,1009,61678
1,1010,61643
1,1011,61604
1,1012,61641
1,1013,61678
1,1014,61673
1,1015,61643
1,1016,61669
1,1017,61676
1,1018,61640
1,1019,61635
1,1020,61644
1,1021,61617
1,1022,61653
1,1023,61644
1,1024,61687
1,1025,61661
1,1026,61647
1,1027,61635
1,1028,61672
1,1029,61624
1,1030,61616
1,1031,61655
1,1032,61623
1,1033,61643
1,1034,61641
1,1035,61673
1,1036,61660
1,1037,61605
1,1038,61637
1,1039,61650
1,1040,61655
1,1041,61680
1,1042,61667
1,1043,61671
1,1044,61634
1,1045,61676
1,1046,61662
1,1047,61641
1,1048,61676
1,1049,61649
1,1050,61701
1,1051,61684
1,1052,61660
1,1053,61645
1,1054,61635
1,1055,61653
1,1056,61691
1,1057,61637
1,1058,61647
1,1059,61679
1,1060,61638
1,1061,61661
1,1062,61643
1,1063,61660
1,1064,61681
1,1065,61607
1,1066,61631
1,1067,61681
1,1068,61665
1,1069,61676
1,1070,61635
1,1071,61667
1,1072,61656
1,1073,61621
1,1074,61602
1,1075,61620
1,1076,61632
1,1077,61657
1,1078,61646
1,1079,61616
1,1080,61667
1,1081,61656
1,1082,61644
1,1083,61640
1,1084,61614
1,1085,61623
1,1086,61689
1,1087,61603
1,1088,61637
1,1089,61626
1,1090,61627
1,1091,61631
1,1092,61684
1,1093,61673
1,1094,61674
1,1095,61632
1,1096,61610
1,1097,61645
1,1098,61655
1,1099,61632
1,1100,61653
1,1101,61686
1,1102,61664
1,1103,61666
1,1104,61681
1,1105,61662
1,1106,61616
1,1107,61613
1,1108,61643
1,1109,61676
1,1110,61616
1,1111,61668
1,1112,61621
1,1113,61660
1,1114,61669
1,1115,61650
1,1116,61650
1,1117,61638
1,1118,61671
1,1119,61652
1,1120,61613
1,1121,61681
1,1122,61651
1,1123,61651
1,1124,61645
1,1125,61698
1,1126,61662
1,1127,61633
1,1128,61673
1,1129,61649
1,1130,61644
1,1131,61608
1,1132,61704
1,1133,61655
1,1134,61624
1,1135,61671
1,1136,61659
1,1137,61634
1,1138,61682
1,1139,61651
1,1140,61672
1,1141,61672
1,1142,61714
1,1143,61668
1,1144,61663
1,1145,61678
1,1146,61687
1,1147,61684
1,1148,61650
1,1149,61632
1,1150,61681
1,1151,61702
1,1152,61707
1,1153,61698
1,1154,61685
1,1155,61655
1,1156,61673
1,1157,61678
1,1158,61671
1,1159,61639
1,1160,61652
1,1161,61634
1,1162,61622
1,1163,61676
1,1164,61662
1,1165,61660
1,1166,61675
1,1167,61683
1,1168,61667
1,1169,61672
1,1170,61675
1,1171,61679
1,1172,61693
1,1173,61664
1,1174,61634
1,1175,61683
1,1176,61702
1,1177,61646
1,1178,61650
1,1179,61641
1,1180,61626
1,1181,61666
1,1182,61643
1,1183,61652
1,1184,61657
1,1185,61671
1,1186,61665
1,1187,61687
1,1188,61667
1,1189,61670
1,1190,61696
1,1191,61655
1,1192,61642
1,1193,61692
1,1194,61655
1,1195,61622
1,1196,61649
1,1197,61668
1,1198,61675
1,1199,61664
1,1200,61677
1,1201,61643
1,1202,61652
1,1203,61642
1,1204,61673
1,1205,61704
1,1206,61661
1,1207,61657
1,1208,61634
1,1209,61667
1,1210,61659
1,1211,61648
1,1212,61687
1,1213,61679
1,1214,61635
1,1215,61663
1,1216,61667
1,1217,61656
1,1218,61649
1,1219,61694
1,1220,61676
1,1221,61667
1,1222,61655
1,1223,61736
1,1224,61706
1,1225,61712
1,1226,61731
1,1227,61704
1,1228,61645
1,1229,61673
1,1230,61697
1,1231,61687
1,1232,61682
1,1233,61713
1,1234,61694
1,1235,61666
1,1236,61702
1,1237,61722
1,1238,61710
1,1239,61740
1,1240,61718
1,1241,61731
1,1242,61692
1,1243,61702
1,1244,61707
1,1245,61709
1,1246,61713
1,1247,61703
1,1248,61698
1,1249,61693
1,1250,61743
1,1251,61734
1,1252,61721
1,1253,61754
1,1254,61733
1,1255,61753
1,1256,61717
1,1257,61709
1,1258,61763
1,1259,61714
1,1260,61712
1,1261,61740
1,1262,61758
1,1263,61738
1,1264,61739
1,1265,61753
1,1266,61729
1,1267,61742
1,1268,61727
1,1269,61780
1,1270,61739
1,1271,61780
1,1272,61750
1,1273,61747
1,1274,61736
1,1275,61761
1,1276,61753
1,1277,61768
1,1278,61746
1,1279,61734
1,1280,61730
1,1281,61728
1,1282,61741
1,1283,61738
1,1284,61773
1,1285,61715
1,1286,61732
1,1287,61761
1,1288,61685
1,1289,61776
1,1290,61738
1,1291,61703
1,1292,61751
1,1293,61730
1,1294,61753
1,1295,61718
1,1296,61735
1,1297,61736
1,1298,61730
1,1299,61718
1,1300,61711
1,1301,61811
1,1302,61769
1,1303,61746
1,1304,61755
1,1305,61720
1,1306,61757
1,1307,61773
1,1308,61711
1,1309,61728
1,1310,61748
1,1311,61760
1,1312,61751
1,1313,61782
1,1314,61747
1,1315,61744
1,1316,61792
1,1317,61790
1,1318,61753
1,1319,61743
1,1320,61772
1,1321,61729
1,1322,61774
1,1323,61766
1,1324,61738
1,1325,61770
1,1326,61747
1,1327,61749
1,1328,61725
1,1329,61748
1,1330,61734
1,1331,61728
1,1332,61728
1,1333,61655
1,1334,61687
1,1335,61687
1,1336,61643
1,1337,61628
1,1338,61635
1,1339,61275
1,1340,70102
