1,1,61619
1,2,61664
1,3,61641
1,4,61664
1,5,61672
1,6,61650
1,7,61647
1,8,61610
1,9,61661
1,10,61670
1,11,61614
1,12,61599
1,13,61676
1,14,61662
1,15,61673
1,16,61667
1,17,61678
1,18,61670
1,19,61658
1,20,61640
1,21,61626
1,22,61681
1,23,61650
1,24,61667
1,25,61706
1,26,61643
1,27,61591
1,28,61647
1,29,61644
1,30,61633
1,31,61670
1,32,61685
1,33,61649
1,34,61657
1,35,61684
1,36,61639
1,37,61670
1,38,61651
1,39,61592
1,40,61615
1,41,61656
1,42,61614
1,43,61632
1,44,61657
1,45,61617
1,46,61643
1,47,61645
1,48,61645
1,49,61640
1,50,61641
1,51,61653
1,52,61620
1,53,61653
1,54,61653
1,55,61636
1,56,61666
1,57,61643
1,58,61650
1,59,61626
1,60,61680
1,61,61631
1,62,61662
1,63,61616
1,64,61648
1,65,61638
1,66,61667
1,67,61621
1,68,61635
1,69,61644
1,70,61630
1,71,61641
1,72,61668
1,73,61658
1,74,61670
1,75,61643
1,76,61643
1,77,61603
1,78,61667
1,79,61636
1,80,61652
1,81,61642
1,82,61606
1,83,61673
1,84,61609
1,85,61649
1,86,61669
1,87,61605
1,88,61609
1,89,61637
1,90,61656
1,91,61641
1,92,61624
1,93,61689
1,94,61622
1,95,61652
1,96,61604
1,97,61656
1,98,61650
1,99,61601
1,100,61638
1,101,61645
1,102,61647
1,103,61611
1,104,61675
1,105,61635
1,106,61681
1,107,61629
1,108,61664
1,109,61627
1,110,61613
1,111,61648
1,112,61621
1,113,61660
1,114,61679
1,115,61686
1,116,61659
1,117,61652
1,118,61674
1,119,61615
1,120,61669
1,121,61677
1,122,61673
1,123,61691
1,124,61657
1,125,61646
1,126,61648
1,127,61663
1,128,61661
1,129,61660
1,130,61637
1,131,61646
1,132,61614
1,133,61666
1,134,61639
1,135,61667
1,136,61619
1,137,61626
1,138,61613
1,139,61655
1,140,61649
1,141,61671
1,142,61668
1,143,61631
1,144,61601
1,145,61634
1,146,61634
1,147,61632
1,148,61684
1,149,61699
1,150,61658
1,151,61623
1,152,61628
1,153,61620
1,154,61659
1,155,61640
1,156,61627
1,157,61645
1,158,61576
1,159,61629
1,160,61624
1,161,61671
1,162,61594
1,163,61651
1,164,61655
1,165,61640
1,166,61628
1,167,61663
1,168,61652
1,169,61633
1,170,61639
1,171,61703
1,172,61623
1,173,61657
1,174,61663
1,175,61666
1,176,61679
1,177,61607
1,178,61615
1,179,61664
1,180,61623
1,181,61647
1,182,61640
1,183,61597
1,184,61639
1,185,61628
1,186,61629
1,187,61668
1,188,61667
1,189,61640
1,190,61666
1,191,61627
1,192,61614
1,193,61684
1,194,61658
1,195,61632
1,196,61677
1,197,61650
1,198,61624
1,199,61611
1,200,61617
1,201,61656
1,202,61668
1,203,61670
1,204,61614
1,205,61674
1,206,61648
1,207,61634
1,208,61653
1,209,61639
1,210,61657
1,211,61629
1,212,61624
1,213,61683
1,214,61648
1,215,61615
1,216,61597
1,217,61663
1,218,61667
1,219,61606
1,220,61649
1,221,61606
1,222,61623
1,223,61662
1,224,61637
1,225,61626
1,226,61683
1,227,61629
1,228,61656
1,229,61632
1,230,61661
1,231,61639
1,232,61606
1,233,61673
1,234,61631
1,235,61628
1,236,61642
1,237,61613
1,238,61646
1,239,61628
1,240,61628
1,241,61619
1,242,61644
1,243,61644
1,244,61644
1,245,61646
1,246,61656
1,247,61593
1,248,61644
1,249,61638
1,250,61629
1,251,61643
1,252,61609
1,253,61671
1,254,61645
1,255,61662
1,256,61633
1,257,61666
1,258,61639
1,259,61644
1,260,61667
1,261,61623
1,262,61690
1,263,61673
1,264,61652
1,265,61638
1,266,61667
1,267,61630
1,268,61659
1,269,61651
1,270,61635
1,271,61660
1,272,61649
1,273,61625
1,274,61654
1,275,61652
1,276,61638
1,277,61671
1,278,61604
1,279,61665
1,280,61646
1,281,61636
1,282,61615
1,283,61615
1,284,61646
1,285,61639
1,286,61636
1,287,61629
1,288,61694
1,289,61633
1,290,61629
1,291,61629
1,292,61637
1,293,61626
1,294,61646
1,295,61660
1,296,61664
1,297,61632
1,298,61645
1,299,61663
1,300,61668
1,301,61668
1,302,61665
1,303,61691
1,304,61683
1,305,61629
1,306,61667
1,307,61627
1,308,61641
1,309,61666
1,310,61612
1,311,61621
1,312,61662
1,313,61672
1,314,61631
1,315,61619
1,316,61593
1,317,61601
1,318,61660
1,319,61632
1,320,61680
1,321,61649
1,322,61614
1,323,61671
1,324,61618
1,325,61619
1,326,61665
1,327,61624
1,328,61659
1,329,61622
1,330,61620
1,331,61640
1,332,61613
1,333,61626
1,334,61669
1,335,61632
1,336,61623
1,337,61683
1,338,61668
1,339,61648
1,340,61639
1,341,61634
1,342,61641
1,343,61638
1,344,61624
1,345,61579
1,346,61630
1,347,61629
1,348,61650
1,349,61682
1,350,61626
1,351,61628
1,352,61619
1,353,61662
1,354,61637
1,355,61650
1,356,61647
1,357,61611
1,358,61625
1,359,61648
1,360,61668
1,361,61651
1,362,61617
1,363,61683
1,364,61661
1,365,61647
1,366,61665
1,367,61635
1,368,61614
1,369,61637
1,370,61613
1,371,61624
1,372,61603
1,373,61626
1,374,61654
1,375,61638
1,376,61649
1,377,61663
1,378,61656
1,379,61660
1,380,61660
1,381,61626
1,382,61686
1,383,61611
1,384,61624
1,385,61635
1,386,61640
1,387,61645
1,388,61666
1,389,61662
1,390,61617
1,391,61651
1,392,61680
1,393,61654
1,394,61671
1,395,61714
1,396,61640
1,397,61623
1,398,61649
1,399,61652
1,400,61621
1,401,61622
1,402,61631
1,403,61667
1,404,61665
1,405,61603
1,406,61638
1,407,61624
1,408,61615
1,409,61639
1,410,61634
1,411,61620
1,412,61628
1,413,61634
1,414,61661
1,415,61624
1,416,61668
1,417,61655
1,418,61636
1,419,61617
1,420,61620
1,421,61674
1,422,61658
1,423,61678
1,424,61628
1,425,61642
1,426,61638
1,427,61665
1,428,61671
1,429,61690
1,430,61654
1,431,61640
1,432,61612
1,433,61651
1,434,61654
1,435,61665
1,436,61656
1,437,61652
1,438,61641
1,439,61682
1,440,61643
1,441,61638
1,442,61619
1,443,61630
1,444,61640
1,445,61634
1,446,61655
1,447,61650
1,448,61643
1,449,61608
1,450,61667
1,451,61643
1,452,61631
1,453,61656
1,454,61668
1,455,61617
1,456,61647
1,457,61668
1,458,61633
1,459,61652
1,460,61600
1,461,61631
1,462,61627
1,463,61665
1,464,61619
1,465,61634
1,466,61649
1,467,61663
1,468,61635
1,469,61660
1,470,61641
1,471,61658
1,472,61636
1,473,61633
1,474,61618
1,475,61616
1,476,61636
1,477,61622
1,478,61604
1,479,61648
1,480,61628
1,481,61636
1,482,61614
1,483,61637
1,484,61629
1,485,61652
1,486,61612
1,487,61638
1,488,61648
1,489,61681
1,490,61626
1,491,61624
1,492,61643
1,493,61648
1,494,61639
1,495,61651
1,496,61660
1,497,61647
1,498,61649
1,499,61653
1,500,61661
1,501,61633
1,502,61646
1,503,61665
1,504,61655
1,505,61647
1,506,61638
1,507,61611
1,508,61631
1,509,61615
1,510,61605
1,511,61629
1,512,61637
1,513,61623
1,514,61662
1,515,61648
1,516,61638
1,517,61657
1,518,61614
1,519,61617
1,520,61675
1,521,61638
1,522,61638
1,523,61645
1,524,61631
1,525,61633
1,526,61650
1,527,61659
1,528,61641
1,529,61644
1,530,61612
1,531,61649
1,532,61655
1,533,61644
1,534,61634
1,535,61639
1,536,61632
1,537,61651
1,538,61636
1,539,61620
1,540,61673
1,541,61648
1,542,61673
1,543,61666
1,544,61618
1,545,61636
1,546,61657
1,547,61647
1,548,61644
1,549,61644
1,550,61651
1,551,61621
1,552,61628
1,553,61666
1,554,61631
1,555,61589
1,556,61631
1,557,61653
1,558,61652
1,559,61637
1,560,61653
1,561,61652
1,562,61644
1,563,61603
1,564,61608
1,565,61621
1,566,61665
1,567,61613
1,568,61626
1,569,61645
1,570,61630
1,571,61653
1,572,61668
1,573,61647
1,574,61664
1,575,61649
1,576,61624
1,577,61665
1,578,61627
1,579,61634
1,580,61599
1,581,61613
1,582,61652
1,583,61599
1,584,61701
1,585,61657
1,586,61580
1,587,61647
1,588,61655
1,589,61689
1,590,61619
1,591,61657
1,592,61615
1,593,61693
1,594,61643
1,595,61626
1,596,61656
1,597,61697
1,598,61671
1,599,61652
1,600,61626
1,601,61632
1,602,61623
1,603,61632
1,604,61633
1,605,61640
1,606,61624
1,607,61662
1,608,61661
1,609,61624
1,610,61646
1,611,61715
1,612,61619
1,613,61665
1,614,61662
1,615,61663
1,616,61644
1,617,61677
1,618,61663
1,619,61626
1,620,61649
1,621,61653
1,622,61638
1,623,61652
1,624,61665
1,625,61637
1,626,61679
1,627,61621
1,628,61681
1,629,61672
1,630,61622
1,631,61624
1,632,61644
1,633,61633
1,634,61623
1,635,61660
1,636,61652
1,637,61639
1,638,61684
1,639,61646
1,640,61660
1,641,61648
1,642,61642
1,643,61684
1,644,61661
1,645,61647
1,646,61618
1,647,61672
1,648,61635
1,649,61633
1,650,61630
1,651,61635
1,652,61667
1,653,61654
1,654,61647
1,655,61672
1,656,61656
1,657,61659
1,658,61684
1,659,61653
1,660,61634
1,661,61593
1,662,61648
1,663,61634
1,664,61644
1,665,61650
1,666,61633
1,667,61661
1,668,61656
1,669,61675
1,670,61664
1,671,61604
1,672,61647
1,673,61622
1,674,61656
1,675,61694
1,676,61647
1,677,61677
1,678,61691
1,679,61646
1,680,61682
1,681,61608
1,682,61661
1,683,61653
1,684,61609
1,685,61652
1,686,61658
1,687,61655
1,688,61623
1,689,61652
1,690,61637
1,691,61675
1,692,61645
1,693,61651
1,694,61636
1,695,61656
1,696,61648
1,697,61630
1,698,61668
1,699,61649
1,700,61648
1,701,61633
1,702,61665
1,703,61645
1,704,61651
1,705,61638
1,706,61663
1,707,61611
1,708,61677
1,709,61616
1,710,61635
1,711,61664
1,712,61585
1,713,61623
1,714,61615
1,715,61648
1,716,61644
1,717,61649
1,718,61654
1,719,61677
1,720,61644
1,721,61642
1,722,61653
1,723,61649
1,724,61673
1,725,61647
1,726,61667
1,727,61649
1,728,61634
1,729,61668
1,730,61641
1,731,61656
1,732,61689
1,733,61659
1,734,61657
1,735,61642
1,736,61641
1,737,61631
1,738,61623
1,739,61609
1,740,61664
1,741,61644
1,742,61657
1,743,61651
1,744,61621
1,745,61624
1,746,61657
1,747,61671
1,748,61633
1,749,61682
1,750,61626
1,751,61663
1,752,61647
1,753,61636
1,754,61682
1,755,61636
1,756,61614
1,757,61668
1,758,61644
1,759,61651
1,760,61660
1,761,61650
1,762,61630
1,763,61684
1,764,61635
1,765,61600
1,766,61646
1,767,61636
1,768,61647
1,769,61662
1,770,61648
1,771,61688
1,772,61659
1,773,61650
1,774,61644
1,775,61633
1,776,61633
1,777,61647
1,778,61666
1,779,61644
1,780,61605
1,781,61641
1,782,61646
1,783,61646
1,784,61626
1,785,61603
1,786,61660
1,787,61684
1,788,61614
1,789,61636
1,790,61632
1,791,61648
1,792,61627
1,793,61638
1,794,61653
1,795,61688
1,796,61623
1,797,61650
1,798,61664
1,799,61661
1,800,61639
1,801,61649
1,802,61646
1,803,61669
1,804,61638
1,805,61645
1,806,61612
1,807,61656
1,808,61631
1,809,61615
1,810,61663
1,811,61646
1,812,61662
1,813,61655
1,814,61672
1,815,61614
1,816,61646
1,817,61646
1,818,61629
1,819,61638
1,820,61649
1,821,61658
1,822,61638
1,823,61668
1,824,61624
1,825,61648
1,826,61648
1,827,61646
1,828,61626
1,829,61638
1,830,61615
1,831,61662
1,832,61632
1,833,61660
1,834,61671
1,835,61660
1,836,61631
1,837,61611
1,838,61625
1,839,61711
1,840,61651
1,841,61663
1,842,61655
1,843,61628
1,844,61638
1,845,61646
1,846,61650
1,847,61611
1,848,61666
1,849,61650
1,850,61681
1,851,61673
1,852,61625
1,853,61646
1,854,61668
1,855,61604
1,856,61664
1,857,61680
1,858,61584
1,859,61646
1,860,61650
1,861,61640
1,862,61619
1,863,61627
1,864,61682
1,865,61615
1,866,61643
1,867,61645
1,868,61648
1,869,61691
1,870,61634
1,871,61674
1,872,61648
1,873,61656
1,874,61646
1,875,61686
1,876,61651
1,877,61637
1,878,61643
1,879,61637
1,880,61654
1,881,61657
1,882,61639
1,883,61633
1,884,61601
1,885,61671
1,886,61658
1,887,61611
1,888,61658
1,889,61676
1,890,61650
1,891,61666
1,892,61661
1,893,61678
1,894,61618
1,895,61644
1,896,61647
1,897,61622
1,898,61660
1,899,61661
1,900,61628
1,901,61676
1,902,61653
1,903,61657
1,904,61627
1,905,61623
1,906,61624
1,907,61688
1,908,61655
1,909,61633
1,910,61640
1,911,61621
1,912,61624
1,913,61682
1,914,61668
1,915,61631
1,916,61678
1,917,61678
1,918,61635
1,919,61664
1,920,61659
1,921,61645
1,922,61673
1,923,61682
1,924,61617
1,925,61669
1,926,61647
1,927,61690
1,928,61645
1,929,61679
1,930,61664
1,931,61678
1,932,61605
1,933,61667
1,934,61636
1,935,61683
1,936,61659
1,937,61647
1,938,61646
1,939,61631
1,940,61616
1,941,61656
1,942,61667
1,943,61649
1,944,61675
1,945,61659
1,946,61661
1,947,61650
1,948,61617
1,949,61605
1,950,61667
1,951,61656
1,952,61646
1,953,61678
1,954,61657
1,955,61625
1,956,61600
1,957,61655
1,958,61654
1,959,61646
1,960,61633
1,961,61615
1,962,61645
1,963,61630
1,964,61673
1,965,61625
1,966,61653
1,967,61672
1,968,61686
1,969,61651
1,970,61619
1,971,61639
1,972,61675
1,973,61621
1,974,61642
1,975,61639
1,976,61653
1,977,61647
1,978,61620
1,979,61656
1,980,61660
1,981,61667
1,982,61662
1,983,61611
1,984,61637
1,985,61677
1,986,61631
1,987,61642
1,988,61648
1,989,61629
1,990,61664
1,991,61632
1,992,61679
1,993,61678
1,994,61634
1,995,61640
1,996,61651
1,997,61659
1,998,61627
1,999,61656
1,1000,61626
1,1001,61672
1,1002,61669
1,1003,61682
1,1004,61620
1,1005,61620
1,1006,61630
1,1007,61647
1,1008,61657
1,1009,61653
1,1010,61655
1,1011,61619
1,1012,61628
1,1013,61659
1,1014,61636
1,1015,61675
1,1016,61647
1,1017,61678
1,1018,61642
1,1019,61656
1,1020,61639
1,1021,61663
1,1022,61660
1,1023,61641
1,1024,61646
1,1025,61662
1,1026,61671
1,1027,61649
1,1028,61691
1,1029,61656
1,1030,61639
1,1031,61662
1,1032,61650
1,1033,61664
1,1034,61651
1,1035,61663
1,1036,61667
1,1037,61674
1,1038,61668
1,1039,61686
1,1040,61690
1,1041,61656
1,1042,61661
1,1043,61654
1,1044,61607
1,1045,61626
1,1046,61661
1,1047,61671
1,1048,61679
1,1049,61627
1,1050,61651
1,1051,61642
1,1052,61655
1,1053,61690
1,1054,61670
1,1055,61654
1,1056,61628
1,1057,61656
1,1058,61657
1,1059,61672
1,1060,61649
1,1061,61683
1,1062,61684
1,1063,61657
1,1064,61667
1,1065,61636
1,1066,61657
1,1067,61635
1,1068,61612
1,1069,61655
1,1070,61645
1,1071,61640
1,1072,61655
1,1073,61659
1,1074,61697
1,1075,61672
1,1076,61646
1,1077,61639
1,1078,61673
1,1079,61639
1,1080,61605
1,1081,61664
1,1082,61635
1,1083,61699
1,1084,61660
1,1085,61691
1,1086,61654
1,1087,61598
1,1088,61630
1,1089,61668
1,1090,61674
1,1091,61698
1,1092,61658
1,1093,61632
1,1094,61679
1,1095,61669
1,1096,61654
1,1097,61678
1,1098,61640
1,1099,61673
1,1100,61642
1,1101,61697
1,1102,61686
1,1103,61661
1,1104,61645
1,1105,61672
1,1106,61684
1,1107,61677
1,1108,61652
1,1109,61637
1,1110,61679
1,1111,61676
1,1112,61669
1,1113,61643
1,1114,61676
1,1115,61650
1,1116,61692
1,1117,61626
1,1118,61676
1,1119,61653
1,1120,61694
1,1121,61668
1,1122,61672
1,1123,61645
1,1124,61675
1,1125,61641
1,1126,61696
1,1127,61670
1,1128,61696
1,1129,61673
1,1130,61665
1,1131,61658
1,1132,61657
1,1133,61683
1,1134,61688
1,1135,61645
1,1136,61659
1,1137,61668
1,1138,61680
1,1139,61657
1,1140,61685
1,1141,61689
1,1142,61666
1,1143,61682
1,1144,61645
1,1145,61681
1,1146,61651
1,1147,61639
1,1148,61665
1,1149,61661
1,1150,61689
1,1151,61680
1,1152,61688
1,1153,61636
1,1154,61669
1,1155,61695
1,1156,61642
1,1157,61697
1,1158,61671
1,1159,61688
1,1160,61665
1,1161,61704
1,1162,61708
1,1163,61712
1,1164,61697
1,1165,61673
1,1166,61698
1,1167,61621
1,1168,61640
1,1169,61695
1,1170,61664
1,1171,61680
1,1172,61665
1,1173,61666
1,1174,61666
1,1175,61655
1,1176,61690
1,1177,61661
1,1178,61674
1,1179,61677
1,1180,61649
1,1181,61669
1,1182,61700
1,1183,61670
1,1184,61616
1,1185,61682
1,1186,61674
1,1187,61681
1,1188,61660
1,1189,61698
1,1190,61685
1,1191,61681
1,1192,61672
1,1193,61657
1,1194,61666
1,1195,61684
1,1196,61695
1,1197,61686
1,1198,61669
1,1199,61654
1,1200,61689
1,1201,61692
1,1202,61659
1,1203,61713
1,1204,61709
1,1205,61657
1,1206,61678
1,1207,61674
1,1208,61666
1,1209,61631
1,1210,61636
1,1211,61672
1,1212,61668
1,1213,61680
1,1214,61737
1,1215,61666
1,1216,61617
1,1217,61702
1,1218,61679
1,1219,61720
1,1220,61704
1,1221,61683
1,1222,61677
1,1223,61696
1,1224,61705
1,1225,61694
1,1226,61712
1,1227,61672
1,1228,61700
1,1229,61701
1,1230,61651
1,1231,61682
1,1232,61717
1,1233,61701
1,1234,61717
1,1235,61730
1,1236,61737
1,1237,61648
1,1238,61670
1,1239,61695
1,1240,61683
1,1241,61705
1,1242,61700
1,1243,61723
1,1244,61721
1,1245,61711
1,1246,61711
1,1247,61734
1,1248,61702
1,1249,61719
1,1250,61720
1,1251,61735
1,1252,61727
1,1253,61729
1,1254,61739
1,1255,61737
1,1256,61727
1,1257,61730
1,1258,61729
1,1259,61741
1,1260,61748
1,1261,61734
1,1262,61738
1,1263,61766
1,1264,61717
1,1265,61706
1,1266,61762
1,1267,61707
1,1268,61743
1,1269,61756
1,1270,61725
1,1271,61761
1,1272,61766
1,1273,61716
1,1274,61780
1,1275,61726
1,1276,61781
1,1277,61781
1,1278,61734
1,1279,61766
1,1280,61714
1,1281,61748
1,1282,61768
1,1283,61746
1,1284,61753
1,1285,61747
1,1286,61775
1,1287,61726
1,1288,61768
1,1289,61776
1,1290,61722
1,1291,61754
1,1292,61748
1,1293,61722
1,1294,61757
1,1295,61748
1,1296,61731
1,1297,61770
1,1298,61743
1,1299,61724
1,1300,61734
1,1301,61758
1,1302,61801
1,1303,61725
1,1304,61765
1,1305,61741
1,1306,61734
1,1307,61755
1,1308,61719
1,1309,61743
1,1310,61747
1,1311,61714
1,1312,61736
1,1313,61731
1,1314,61760
1,1315,61713
1,1316,61752
1,1317,61781
1,1318,61735
1,1319,61749
1,1320,61745
1,1321,61719
1,1322,61745
1,1323,61720
1,1324,61747
1,1325,61759
1,1326,61761
1,1327,61754
1,1328,61764
1,1329,61762
1,1330,61701
1,1331,61691
1,1332,61723
1,1333,61697
1,1334,61708
1,1335,61643
1,1336,61630
1,1337,61610
1,1338,61607
1,1339,61298
1,1340,70132
