1,1,324453
1,2,326592
1,3,328728
1,4,330966
1,5,332972
1,6,335314
1,7,337036
1,8,339516
1,9,340602
1,10,343070
1,11,345384
1,12,347467
1,13,348839
1,14,351395
1,15,353389
1,16,355148
1,17,356897
1,18,359345
1,19,360911
1,20,362718
1,21,364551
1,22,366898
1,23,368107
1,24,369861
1,25,371564
1,26,373428
1,27,374878
1,28,376063
1,29,378033
1,30,379842
1,31,380883
1,32,382672
1,33,383959
1,34,385138
1,35,386366
1,36,388286
1,37,389065
1,38,390452
1,39,391725
1,40,392667
1,41,393438
1,42,395208
1,43,396122
1,44,397457
1,45,398054
1,46,399529
1,47,401088
1,48,401389
1,49,402700
1,50,403355
1,51,404199
1,52,405259
1,53,406084
1,54,406630
1,55,407469
1,56,408521
1,57,409835
1,58,410784
1,59,411234
1,60,411958
1,61,413224
1,62,414287
1,63,414683
1,64,415867
1,65,416038
1,66,416320
1,67,416091
1,68,416219
1,69,415611
1,70,414635
1,71,413912
1,72,411661
1,73,408928
1,74,405376
1,75,400751
1,76,394244
1,77,386186
1,78,374788
1,79,362834
1,80,347846
1,81,331519
1,82,313034
1,83,293431
1,84,273909
1,85,254291
1,86,235045
1,87,217312
1,88,200278
1,89,184382
1,90,169752
1,91,156680
1,92,144619
1,93,134601
1,94,125691
1,95,118094
1,96,111540
1,97,106040
1,98,101262
1,99,97192
1,100,93804
1,101,90749
1,102,88202
1,103,85948
1,104,83923
1,105,82436
1,106,81106
1,107,80228
1,108,79298
1,109,78554
1,110,77972
1,111,77498
1,112,77176
1,113,76913
1,114,76537
1,115,76425
1,116,76253
1,117,76060
1,118,75991
1,119,75918
1,120,75809
1,121,75740
1,122,75566
1,123,75463
1,124,75420
1,125,75426
1,126,75255
1,127,75294
1,128,75307
1,129,75225
1,130,75161
1,131,75200
1,132,75153
1,133,75004
1,134,75162
1,135,75039
1,136,74981
1,137,74970
1,138,74954
1,139,75000
1,140,74890
1,141,74766
1,142,74878
1,143,74906
1,144,74765
1,145,74873
1,146,74844
1,147,74794
1,148,74798
1,149,74904
1,150,74841
1,151,74789
1,152,74843
1,153,74815
1,154,74885
1,155,74900
1,156,74848
1,157,74828
1,158,74792
1,159,74861
1,160,74893
1,161,75009
1,162,75016
1,163,75143
1,164,75174
1,165,75391
1,166,75432
1,167,75437
1,168,75690
1,169,75776
1,170,75896
1,171,75940
1,172,76275
1,173,76365
1,174,76514
1,175,76584
1,176,76893
1,177,76918
1,178,77036
1,179,77185
1,180,77212
1,181,77350
1,182,77454
1,183,77368
1,184,77306
1,185,77475
1,186,77600
1,187,77715
1,188,77914
1,189,78198
1,190,78510
1,191,79106
1,192,79997
1,193,81077
1,194,82446
1,195,84373
1,196,86463
1,197,88998
1,198,92209
1,199,95689
1,200,100917
1,201,106821
1,202,113805
1,203,120539
1,204,127805
1,205,135273
1,206,142774
1,207,151781
1,208,162272
1,209,174105
1,210,187012
1,211,199052
1,212,211256
1,213,222072
1,214,231955
1,215,242266
1,216,253138
1,217,265021
1,218,279242
1,219,293275
1,220,307219
1,221,319554
1,222,330234
1,223,338539
1,224,346028
1,225,353951
1,226,362217
1,227,371635
1,228,381938
1,229,392438
1,230,402315
1,231,410069
1,232,416598
1,233,422223
1,234,426795
1,235,432507
1,236,437666
1,237,445025
1,238,452872
1,239,460089
1,240,467979
1,241,474791
1,242,479390
1,243,484337
1,244,488386
1,245,492125
1,246,496753
1,247,501612
1,248,507798
1,249,513898
1,250,520264
1,251,524295
1,252,529160
1,253,533453
1,254,537224
1,255,539642
1,256,542726
1,257,547028
1,258,551187
1,259,555413
1,260,558942
1,261,563909
1,262,567461
1,263,570143
1,264,573341
1,265,575621
1,266,577205
1,267,580288
1,268,582751
1,269,585467
1,270,588934
1,271,590476
1,272,593844
1,273,595157
1,274,597195
1,275,598787
1,276,600081
1,277,601857
1,278,602414
1,279,604830
1,280,607094
1,281,608034
1,282,608602
1,283,609560
1,284,611623
1,285,612547
1,286,613383
1,287,613581
1,288,613595
1,289,614593
1,290,616365
1,291,617308
1,292,618292
1,293,618981
1,294,619946
1,295,619504
1,296,620672
1,297,621038
1,298,621468
1,299,622376
1,300,621819
1,301,623039
1,302,623333
1,303,623994
1,304,623675
1,305,624407
1,306,624897
1,307,624405
1,308,624156
1,309,623728
1,310,624420
1,311,624212
1,312,625080
1,313,624812
1,314,625633
1,315,624207
1,316,624893
1,317,624876
1,318,624890
1,319,625362
1,320,624982
1,321,624768
1,322,624698
1,323,624878
1,324,625044
1,325,624835
1,326,624394
1,327,624419
1,328,624876
1,329,625051
1,330,624866
1,331,623900
1,332,625012
1,333,623743
1,334,623248
1,335,622624
1,336,622193
1,337,622281
1,338,622014
1,339,621687
1,340,621758
1,341,622050
1,342,622394
1,343,621362
1,344,621758
1,345,620734
1,346,620577
1,347,620371
1,348,620033
1,349,620639
1,350,620219
1,351,619599
1,352,619188
1,353,619313
1,354,618884
1,355,618985
1,356,618613
1,357,618563
1,358,617914
1,359,616762
1,360,616550
1,361,616680
1,362,617085
1,363,616331
1,364,615543
1,365,615940
1,366,615475
1,367,614675
1,368,615644
1,369,615768
1,370,614745
1,371,614177
1,372,614207
1,373,614911
1,374,614275
1,375,613260
1,376,614046
1,377,612930
1,378,612850
1,379,613802
1,380,612660
1,381,612343
1,382,612388
1,383,611699
1,384,611785
1,385,611230
1,386,610260
1,387,609970
1,388,609964
1,389,609239
1,390,608895
1,391,609723
1,392,609093
1,393,608580
1,394,608197
1,395,607982
1,396,607840
1,397,607338
1,398,606918
1,399,606454
1,400,606277
1,401,606590
1,402,605061
1,403,606242
1,404,605715
1,405,605067
1,406,604890
1,407,603368
1,408,604299
1,409,603384
1,410,603517
1,411,602319
1,412,602192
1,413,601993
1,414,601870
1,415,601688
1,416,600711
1,417,600597
1,418,600388
1,419,599254
1,420,599066
1,421,599455
1,422,599266
1,423,599187
1,424,598792
1,425,598529
1,426,598076
1,427,597791
1,428,597593
1,429,597527
1,430,596753
1,431,596212
1,432,595966
1,433,595780
1,434,595366
1,435,594967
1,436,594478
1,437,593145
1,438,593287
1,439,592009
1,440,592725
1,441,592381
1,442,591874
1,443,591072
1,444,591283
1,445,590201
1,446,590277
1,447,590075
1,448,589371
1,449,589191
1,450,588399
1,451,588437
1,452,587878
1,453,587355
1,454,587070
1,455,585803
1,456,586093
1,457,586348
1,458,586080
1,459,585271
1,460,585050
1,461,584069
1,462,583728
1,463,583465
1,464,582379
1,465,582745
1,466,581685
1,467,581397
1,468,582224
1,469,581362
1,470,581225
1,471,579949
1,472,579404
1,473,578829
1,474,578711
1,475,578436
1,476,577895
1,477,578316
1,478,577884
1,479,577392
1,480,577186
1,481,576521
1,482,576380
1,483,575011
1,484,574769
1,485,574154
1,486,573550
1,487,573472
1,488,571823
1,489,572704
1,490,571337
1,491,571103
1,492,570942
1,493,570449
1,494,570124
1,495,570076
1,496,568969
1,497,568620
1,498,568288
1,499,568075
1,500,568224
1,501,567728
1,502,566915
1,503,566489
1,504,565773
1,505,566141
1,506,564975
1,507,564713
1,508,565225
1,509,564652
1,510,563356
1,511,563403
1,512,562292
1,513,562069
1,514,561584
1,515,560682
1,516,560759
1,517,560208
1,518,559646
1,519,558840
1,520,558738
1,521,558452
1,522,557029
1,523,557827
1,524,556830
1,525,556366
1,526,556278
1,527,555598
1,528,554433
1,529,555002
1,530,554182
1,531,553272
1,532,553740
1,533,552912
1,534,552774
1,535,551012
1,536,551406
1,537,551137
1,538,549700
1,539,549681
1,540,548953
1,541,549295
1,542,547742
1,543,547760
1,544,547116
1,545,547320
1,546,545988
1,547,546133
1,548,546020
1,549,545083
1,550,544380
1,551,543297
1,552,543072
1,553,543398
1,554,542973
1,555,542156
1,556,540756
1,557,541203
1,558,540410
1,559,540586
1,560,539774
1,561,539240
1,562,538184
1,563,538277
1,564,537414
1,565,536982
1,566,536407
1,567,535433
1,568,535396
1,569,535065
1,570,534289
1,571,534329
1,572,533649
1,573,533536
1,574,532448
1,575,531803
1,576,531653
1,577,531367
1,578,530252
1,579,530532
1,580,530184
1,581,529045
1,582,528832
1,583,528504
1,584,528249
1,585,527604
1,586,527448
1,587,526260
1,588,526621
1,589,525382
1,590,524835
1,591,524275
1,592,524108
1,593,523292
1,594,522966
1,595,522162
1,596,521546
1,597,520735
1,598,520573
1,599,519948
1,600,519758
1,601,519904
1,602,519558
1,603,517975
1,604,517870
1,605,517578
1,606,517026
1,607,516298
1,608,515872
1,609,515827
1,610,515322
1,611,515092
1,612,513872
1,613,513678
1,614,511997
1,615,512126
1,616,511474
1,617,511207
1,618,510532
1,619,509913
1,620,510213
1,621,509635
1,622,509244
1,623,508288
1,624,507809
1,625,506686
1,626,506581
1,627,506131
1,628,505953
1,629,505959
1,630,504495
1,631,504165
1,632,503715
1,633,502973
1,634,502324
1,635,502100
1,636,502134
1,637,500946
1,638,500799
1,639,500317
1,640,499437
1,641,498589
1,642,497830
1,643,497764
1,644,497332
1,645,496897
1,646,496290
1,647,496330
1,648,496012
1,649,494998
1,650,494873
1,651,493806
1,652,493380
1,653,492267
1,654,492873
1,655,492363
1,656,491717
1,657,491678
1,658,490302
1,659,489302
1,660,489492
1,661,488994
1,662,488480
1,663,487865
1,664,487381
1,665,486422
1,666,485263
1,667,485913
1,668,484236
1,669,484167
1,670,483423
1,671,482850
1,672,482390
1,673,481738
1,674,481054
1,675,480936
1,676,480157
1,677,479784
1,678,479814
1,679,479176
1,680,478495
1,681,478084
1,682,477938
1,683,476931
1,684,475693
1,685,476043
1,686,475071
1,687,475205
1,688,474519
1,689,473507
1,690,473587
1,691,472633
1,692,472257
1,693,471600
1,694,469879
1,695,470248
1,696,469591
1,697,468960
1,698,468193
1,699,467959
1,700,467825
1,701,466999
1,702,466157
1,703,466070
1,704,465874
1,705,465175
1,706,464124
1,707,463346
1,708,463570
1,709,462448
1,710,461936
1,711,461448
1,712,460630
1,713,460399
1,714,459805
1,715,459479
1,716,458877
1,717,458326
1,718,458145
1,719,457113
1,720,455578
1,721,455887
1,722,455246
1,723,454778
1,724,453761
1,725,453681
1,726,452940
1,727,452352
1,728,451796
1,729,451601
1,730,450869
1,731,450430
1,732,450052
1,733,448997
1,734,448227
1,735,447950
1,736,447922
1,737,447134
1,738,446825
1,739,445398
1,740,444547
1,741,444706
1,742,444347
1,743,443226
1,744,442561
1,745,442174
1,746,442281
1,747,441173
1,748,440212
1,749,439804
1,750,439067
1,751,438878
1,752,438413
1,753,437320
1,754,437053
1,755,436412
1,756,436156
1,757,435016
1,758,434052
1,759,434326
1,760,433241
1,761,433818
1,762,432957
1,763,432442
1,764,431667
1,765,430982
1,766,430461
1,767,429753
1,768,428679
1,769,428425
1,770,428011
1,771,427645
1,772,427289
1,773,426744
1,774,425193
1,775,425901
1,776,424280
1,777,424003
1,778,422955
1,779,423337
1,780,422178
1,781,421528
1,782,421608
1,783,421092
1,784,420698
1,785,419512
1,786,419454
1,787,418501
1,788,417125
1,789,417510
1,790,416637
1,791,415617
1,792,415736
1,793,415693
1,794,414019
1,795,413176
1,796,413150
1,797,411992
1,798,411949
1,799,411143
1,800,411431
1,801,410406
1,802,409636
1,803,409439
1,804,408932
1,805,408216
1,806,407876
1,807,407071
1,808,406888
1,809,405990
1,810,405843
1,811,405134
1,812,404624
1,813,404501
1,814,403762
1,815,403070
1,816,402099
1,817,401949
1,818,400998
1,819,401340
1,820,399884
1,821,399579
1,822,398736
1,823,397995
1,824,397626
1,825,397188
1,826,397214
1,827,396051
1,828,395654
1,829,394860
1,830,393899
1,831,394285
1,832,392907
1,833,392819
1,834,392231
1,835,391282
1,836,390636
1,837,390464
1,838,390215
1,839,389610
1,840,389027
1,841,388068
1,842,388013
1,843,387252
1,844,386730
1,845,386043
1,846,385136
1,847,384760
1,848,384114
1,849,383668
1,850,383095
1,851,382589
1,852,382104
1,853,381090
1,854,380524
1,855,380309
1,856,379047
1,857,378784
1,858,378478
1,859,378162
1,860,377111
1,861,376904
1,862,376038
1,863,375549
1,864,375010
1,865,374638
1,866,373819
1,867,373321
1,868,372657
1,869,372308
1,870,372173
1,871,371305
1,872,370150
1,873,369577
1,874,369366
1,875,368495
1,876,368407
1,877,367322
1,878,366287
1,879,366334
1,880,365966
1,881,365085
1,882,364937
1,883,363851
1,884,363130
1,885,362927
1,886,362533
1,887,361361
1,888,361651
1,889,360937
1,890,360110
1,891,359502
1,892,359079
1,893,358368
1,894,357925
1,895,357375
1,896,356491
1,897,355731
1,898,355594
1,899,354852
1,900,354283
1,901,353386
1,902,353937
1,903,352883
1,904,351818
1,905,351843
1,906,351525
1,907,350771
1,908,349837
1,909,348742
1,910,348228
1,911,348070
1,912,347954
1,913,346713
1,914,346508
1,915,346567
1,916,345514
1,917,345196
1,918,344249
1,919,343362
1,920,343177
1,921,342532
1,922,341945
1,923,341146
1,924,340260
1,925,339770
1,926,339763
1,927,339003
1,928,337752
1,929,337858
1,930,337291
1,931,336710
1,932,336728
1,933,335865
1,934,334550
1,935,334398
1,936,334015
1,937,333231
1,938,332897
1,939,332381
1,940,331455
1,941,331196
1,942,330498
1,943,330044
1,944,329495
1,945,328694
1,946,328621
1,947,327727
1,948,327062
1,949,326684
1,950,326323
1,951,325599
1,952,324747
1,953,324153
1,954,323791
1,955,323282
1,956,322769
1,957,322143
1,958,321757
1,959,321767
1,960,320650
1,961,320163
1,962,319586
1,963,319213
1,964,318520
1,965,318241
1,966,317465
1,967,316599
1,968,316457
1,969,315508
1,970,314774
1,971,315010
1,972,314373
1,973,313760
1,974,312969
1,975,312015
1,976,311335
1,977,310571
1,978,310534
1,979,310148
1,980,309588
1,981,309607
1,982,308300
1,983,307895
1,984,307216
1,985,306584
1,986,306413
1,987,305710
1,988,304996
1,989,304704
1,990,304665
1,991,304284
1,992,303399
1,993,301873
1,994,302011
1,995,301407
1,996,300866
1,997,300198
1,998,299376
1,999,299585
1,1000,298567
1,1001,298595
1,1002,297523
1,1003,297197
1,1004,296825
1,1005,296027
1,1006,295364
1,1007,294766
1,1008,294557
1,1009,294413
1,1010,293920
1,1011,292775
1,1012,292819
1,1013,292274
1,1014,291398
1,1015,290919
1,1016,290563
1,1017,290272
1,1018,289191
1,1019,288766
1,1020,288109
1,1021,287984
1,1022,287639
1,1023,286474
1,1024,286535
1,1025,285392
1,1026,284537
1,1027,284433
1,1028,284074
1,1029,283081
1,1030,282620
1,1031,282201
1,1032,282328
1,1033,281607
1,1034,280712
1,1035,280333
1,1036,279347
1,1037,279283
1,1038,278456
1,1039,277967
1,1040,277369
1,1041,277317
1,1042,276862
1,1043,276076
1,1044,275721
1,1045,275155
1,1046,274575
1,1047,274148
1,1048,273760
1,1049,273223
1,1050,272331
1,1051,271740
1,1052,271293
1,1053,271324
1,1054,270411
1,1055,270107
1,1056,269579
1,1057,268875
1,1058,268580
1,1059,268393
1,1060,267699
1,1061,267113
1,1062,266818
1,1063,266406
1,1064,266084
1,1065,265196
1,1066,264886
1,1067,264240
1,1068,263892
1,1069,262866
1,1070,262378
1,1071,262314
1,1072,261798
1,1073,261087
1,1074,260298
1,1075,259901
1,1076,259422
1,1077,258843
1,1078,258857
1,1079,258167
1,1080,257658
1,1081,257326
1,1082,256670
1,1083,256140
1,1084,255506
1,1085,254771
1,1086,254703
1,1087,254129
1,1088,253587
1,1089,252842
1,1090,253032
1,1091,252380
1,1092,251580
1,1093,251452
1,1094,250899
1,1095,250576
1,1096,249646
1,1097,249409
1,1098,248900
1,1099,248216
1,1100,247935
1,1101,247268
1,1102,247087
1,1103,246339
1,1104,245504
1,1105,245316
1,1106,244751
1,1107,244246
1,1108,243870
1,1109,243581
1,1110,243190
1,1111,242167
1,1112,241986
1,1113,241613
1,1114,241266
1,1115,240836
1,1116,239849
1,1117,239579
1,1118,239195
1,1119,238560
1,1120,238571
1,1121,237832
1,1122,237283
1,1123,236980
1,1124,236435
1,1125,235928
1,1126,235416
1,1127,235153
1,1128,234368
1,1129,234115
1,1130,234236
1,1131,233493
1,1132,232587
1,1133,232223
1,1134,231351
1,1135,231043
1,1136,231051
1,1137,230758
1,1138,230297
1,1139,229290
1,1140,229471
1,1141,228808
1,1142,228452
1,1143,228023
1,1144,227517
1,1145,226853
1,1146,226617
1,1147,226072
1,1148,225838
1,1149,225338
1,1150,224688
1,1151,224084
1,1152,223503
1,1153,223135
1,1154,222544
1,1155,222823
1,1156,221787
1,1157,221458
1,1158,221057
1,1159,220735
1,1160,219976
1,1161,219420
1,1162,219668
1,1163,219078
1,1164,218748
1,1165,217991
1,1166,217803
1,1167,217223
1,1168,216943
1,1169,216588
1,1170,216102
1,1171,215129
1,1172,215335
1,1173,214294
1,1174,214353
1,1175,213541
1,1176,213491
1,1177,212684
1,1178,212289
1,1179,212230
1,1180,211769
1,1181,211362
1,1182,210362
1,1183,210283
1,1184,210151
1,1185,209604
1,1186,209108
1,1187,208653
1,1188,208121
1,1189,207914
1,1190,207628
1,1191,206803
1,1192,206480
1,1193,206684
1,1194,206109
1,1195,205397
1,1196,205257
1,1197,204882
1,1198,204054
1,1199,203965
1,1200,203118
1,1201,202963
1,1202,202890
1,1203,202520
1,1204,201791
1,1205,201172
1,1206,200672
1,1207,200734
1,1208,200117
1,1209,199919
1,1210,199349
1,1211,199185
1,1212,198600
1,1213,198429
1,1214,197774
1,1215,197533
1,1216,197201
1,1217,196839
1,1218,196813
1,1219,196269
1,1220,195657
1,1221,195436
1,1222,194539
1,1223,194577
1,1224,193832
1,1225,193671
1,1226,193474
1,1227,193087
1,1228,192218
1,1229,191986
1,1230,191452
1,1231,190963
1,1232,190748
1,1233,189975
1,1234,189515
1,1235,189284
1,1236,188975
1,1237,188605
1,1238,188153
1,1239,187480
1,1240,186810
1,1241,186543
1,1242,186304
1,1243,186191
1,1244,185337
1,1245,185018
1,1246,184387
1,1247,184184
1,1248,183350
1,1249,183192
1,1250,182681
1,1251,182383
1,1252,181454
1,1253,181328
1,1254,180832
1,1255,180186
1,1256,179523
1,1257,179335
1,1258,178999
1,1259,178363
1,1260,177609
1,1261,177131
1,1262,177016
1,1263,176564
1,1264,175795
1,1265,175789
1,1266,175468
1,1267,174688
1,1268,173934
1,1269,173479
1,1270,173065
1,1271,172234
1,1272,171731
1,1273,171249
1,1274,170535
1,1275,169951
1,1276,169405
1,1277,169204
1,1278,168704
1,1279,167819
1,1280,167152
1,1281,166262
1,1282,165782
1,1283,165267
1,1284,164546
1,1285,164340
1,1286,163673
1,1287,163100
1,1288,162626
1,1289,161637
1,1290,161162
1,1291,160327
1,1292,159863
1,1293,159097
1,1294,158842
1,1295,158003
1,1296,157669
1,1297,156796
1,1298,156516
1,1299,155770
1,1300,154902
1,1301,154157
1,1302,153622
1,1303,153077
1,1304,152414
1,1305,151864
1,1306,150886
1,1307,150160
1,1308,149800
1,1309,149563
1,1310,148534
1,1311,148055
1,1312,147194
1,1313,146707
1,1314,145844
1,1315,145464
1,1316,144678
1,1317,144099
1,1318,143553
1,1319,143096
1,1320,142144
1,1321,141493
1,1322,140768
1,1323,140444
1,1324,139636
1,1325,139076
1,1326,138658
1,1327,137571
1,1328,137220
1,1329,136389
1,1330,135664
1,1331,135404
1,1332,134812
1,1333,133982
1,1334,133427
1,1335,132783
1,1336,131979
1,1337,131289
1,1338,130635
1,1339,129734
1,1340,137148
