1,1,61588
1,2,61555
1,3,61571
1,4,61568
1,5,61542
1,6,61542
1,7,61580
1,8,61583
1,9,61524
1,10,61580
1,11,61582
1,12,61556
1,13,61539
1,14,61540
1,15,61584
1,16,61558
1,17,61522
1,18,61618
1,19,61567
1,20,61565
1,21,61547
1,22,61550
1,23,61594
1,24,61549
1,25,61592
1,26,61541
1,27,61602
1,28,61588
1,29,61533
1,30,61561
1,31,61538
1,32,61536
1,33,61561
1,34,61551
1,35,61559
1,36,61526
1,37,61608
1,38,61585
1,39,61523
1,40,61621
1,41,61569
1,42,61553
1,43,61558
1,44,61599
1,45,61595
1,46,61557
1,47,61539
1,48,61585
1,49,61589
1,50,61615
1,51,61552
1,52,61551
1,53,61521
1,54,61572
1,55,61597
1,56,61537
1,57,61579
1,58,61565
1,59,61547
1,60,61592
1,61,61560
1,62,61594
1,63,61541
1,64,61593
1,65,61561
1,66,61569
1,67,61571
1,68,61528
1,69,61527
1,70,61599
1,71,61569
1,72,61625
1,73,61526
1,74,61538
1,75,61573
1,76,61567
1,77,61595
1,78,61568
1,79,61582
1,80,61577
1,81,61536
1,82,61614
1,83,61545
1,84,61550
1,85,61535
1,86,61574
1,87,61591
1,88,61556
1,89,61629
1,90,61535
1,91,61575
1,92,61593
1,93,61554
1,94,61567
1,95,61553
1,96,61541
1,97,61561
1,98,61527
1,99,61584
1,100,61525
1,101,61590
1,102,61607
1,103,61578
1,104,61594
1,105,61579
1,106,61573
1,107,61569
1,108,61518
1,109,61574
1,110,61543
1,111,61579
1,112,61573
1,113,61552
1,114,61563
1,115,61575
1,116,61571
1,117,61543
1,118,61561
1,119,61587
1,120,61568
1,121,61563
1,122,61589
1,123,61579
1,124,61601
1,125,61522
1,126,61590
1,127,61545
1,128,61559
1,129,61565
1,130,61541
1,131,61587
1,132,61586
1,133,61555
1,134,61546
1,135,61532
1,136,61576
1,137,61588
1,138,61596
1,139,61551
1,140,61544
1,141,61606
1,142,61559
1,143,61546
1,144,61525
1,145,61558
1,146,61548
1,147,61557
1,148,61591
1,149,61535
1,150,61562
1,151,61551
1,152,61556
1,153,61575
1,154,61546
1,155,61557
1,156,61580
1,157,61505
1,158,61624
1,159,61542
1,160,61542
1,161,61598
1,162,61552
1,163,61595
1,164,61545
1,165,61588
1,166,61543
1,167,61553
1,168,61538
1,169,61557
1,170,61572
1,171,61567
1,172,61585
1,173,61583
1,174,61556
1,175,61619
1,176,61570
1,177,61523
1,178,61591
1,179,61538
1,180,61581
1,181,61573
1,182,61550
1,183,61581
1,184,61544
1,185,61602
1,186,61531
1,187,61594
1,188,61555
1,189,61590
1,190,61599
1,191,61535
1,192,61557
1,193,61560
1,194,61586
1,195,61589
1,196,61536
1,197,61563
1,198,61582
1,199,61565
1,200,61548
1,201,61581
1,202,61611
1,203,61566
1,204,61554
1,205,61568
1,206,61516
1,207,61582
1,208,61516
1,209,61585
1,210,61567
1,211,61601
1,212,61568
1,213,61551
1,214,61575
1,215,61608
1,216,61586
1,217,61573
1,218,61511
1,219,61563
1,220,61570
1,221,61576
1,222,61529
1,223,61578
1,224,61582
1,225,61585
1,226,61590
1,227,61605
1,228,61563
1,229,61599
1,230,61552
1,231,61576
1,232,61587
1,233,61557
1,234,61594
1,235,61574
1,236,61577
1,237,61594
1,238,61553
1,239,61579
1,240,61534
1,241,61592
1,242,61582
1,243,61566
1,244,61626
1,245,61532
1,246,61566
1,247,61559
1,248,61592
1,249,61555
1,250,61559
1,251,61600
1,252,61554
1,253,61525
1,254,61593
1,255,61572
1,256,61592
1,257,61567
1,258,61584
1,259,61620
1,260,61583
1,261,61574
1,262,61539
1,263,61563
1,264,61605
1,265,61560
1,266,61562
1,267,61545
1,268,61578
1,269,61587
1,270,61557
1,271,61572
1,272,61524
1,273,61580
1,274,61606
1,275,61544
1,276,61549
1,277,61549
1,278,61618
1,279,61610
1,280,61548
1,281,61534
1,282,61576
1,283,61595
1,284,61604
1,285,61551
1,286,61580
1,287,61577
1,288,61604
1,289,61577
1,290,61550
1,291,61548
1,292,61576
1,293,61555
1,294,61601
1,295,61578
1,296,61587
1,297,61580
1,298,61582
1,299,61556
1,300,61589
1,301,61587
1,302,61565
1,303,61588
1,304,61549
1,305,61617
1,306,61585
1,307,61547
1,308,61585
1,309,61568
1,310,61567
1,311,61548
1,312,61551
1,313,61530
1,314,61562
1,315,61581
1,316,61550
1,317,61579
1,318,61581
1,319,61525
1,320,61569
1,321,61533
1,322,61576
1,323,61589
1,324,61549
1,325,61574
1,326,61549
1,327,61575
1,328,61571
1,329,61566
1,330,61559
1,331,61560
1,332,61599
1,333,61569
1,334,61558
1,335,61594
1,336,61536
1,337,61585
1,338,61583
1,339,61582
1,340,61624
1,341,61577
1,342,61625
1,343,61573
1,344,61590
1,345,61600
1,346,61563
1,347,61600
1,348,61608
1,349,61587
1,350,61523
1,351,61600
1,352,61584
1,353,61550
1,354,61582
1,355,61566
1,356,61573
1,357,61598
1,358,61527
1,359,61607
1,360,61572
1,361,61548
1,362,61595
1,363,61584
1,364,61578
1,365,61559
1,366,61551
1,367,61578
1,368,61587
1,369,61588
1,370,61543
1,371,61641
1,372,61584
1,373,61526
1,374,61592
1,375,61565
1,376,61592
1,377,61560
1,378,61564
1,379,61584
1,380,61539
1,381,61592
1,382,61537
1,383,61532
1,384,61559
1,385,61558
1,386,61557
1,387,61545
1,388,61552
1,389,61588
1,390,61549
1,391,61546
1,392,61511
1,393,61565
1,394,61579
1,395,61588
1,396,61598
1,397,61581
1,398,61536
1,399,61536
1,400,61559
1,401,61649
1,402,61531
1,403,61587
1,404,61571
1,405,61577
1,406,61589
1,407,61554
1,408,61567
1,409,61560
1,410,61545
1,411,61599
1,412,61535
1,413,61573
1,414,61553
1,415,61585
1,416,61582
1,417,61570
1,418,61567
1,419,61549
1,420,61563
1,421,61536
1,422,61582
1,423,61574
1,424,61560
1,425,61566
1,426,61576
1,427,61567
1,428,61608
1,429,61562
1,430,61606
1,431,61568
1,432,61602
1,433,61574
1,434,61553
1,435,61596
1,436,61533
1,437,61508
1,438,61516
1,439,61546
1,440,61586
1,441,61544
1,442,61568
1,443,61561
1,444,61540
1,445,61564
1,446,61556
1,447,61581
1,448,61588
1,449,61537
1,450,61591
1,451,61589
1,452,61591
1,453,61600
1,454,61521
1,455,61576
1,456,61563
1,457,61607
1,458,61631
1,459,61579
1,460,61590
1,461,61543
1,462,61568
1,463,61564
1,464,61527
1,465,61595
1,466,61568
1,467,61586
1,468,61566
1,469,61566
1,470,61581
1,471,61537
1,472,61625
1,473,61560
1,474,61531
1,475,61565
1,476,61551
1,477,61618
1,478,61563
1,479,61595
1,480,61567
1,481,61581
1,482,61564
1,483,61568
1,484,61596
1,485,61575
1,486,61564
1,487,61577
1,488,61561
1,489,61594
1,490,61565
1,491,61532
1,492,61533
1,493,61590
1,494,61598
1,495,61598
1,496,61557
1,497,61560
1,498,61572
1,499,61589
1,500,61532
1,501,61601
1,502,61588
1,503,61578
1,504,61616
1,505,61581
1,506,61577
1,507,61593
1,508,61539
1,509,61604
1,510,61550
1,511,61580
1,512,61570
1,513,61541
1,514,61583
1,515,61546
1,516,61569
1,517,61545
1,518,61564
1,519,61573
1,520,61544
1,521,61588
1,522,61563
1,523,61533
1,524,61587
1,525,61565
1,526,61588
1,527,61566
1,528,61540
1,529,61579
1,530,61569
1,531,61592
1,532,61560
1,533,61546
1,534,61614
1,535,61573
1,536,61578
1,537,61534
1,538,61581
1,539,61593
1,540,61535
1,541,61562
1,542,61564
1,543,61564
1,544,61585
1,545,61525
1,546,61576
1,547,61603
1,548,61573
1,549,61573
1,550,61590
1,551,61569
1,552,61532
1,553,61595
1,554,61574
1,555,61518
1,556,61610
1,557,61554
1,558,61551
1,559,61543
1,560,61545
1,561,61563
1,562,61595
1,563,61560
1,564,61507
1,565,61619
1,566,61552
1,567,61584
1,568,61556
1,569,61586
1,570,61598
1,571,61550
1,572,61547
1,573,61573
1,574,61555
1,575,61573
1,576,61525
1,577,61535
1,578,61582
1,579,61548
1,580,61597
1,581,61546
1,582,61530
1,583,61553
1,584,61573
1,585,61584
1,586,61547
1,587,61595
1,588,61551
1,589,61578
1,590,61585
1,591,61570
1,592,61548
1,593,61534
1,594,61545
1,595,61580
1,596,61565
1,597,61598
1,598,61585
1,599,61610
1,600,61575
1,601,61572
1,602,61615
1,603,61511
1,604,61571
1,605,61588
1,606,61502
1,607,61582
1,608,61582
1,609,61614
1,610,61613
1,611,61591
1,612,61583
1,613,61523
1,614,61544
1,615,61614
1,616,61579
1,617,61562
1,618,61575
1,619,61558
1,620,61578
1,621,61571
1,622,61576
1,623,61552
1,624,61574
1,625,61561
1,626,61527
1,627,61590
1,628,61546
1,629,61606
1,630,61569
1,631,61559
1,632,61557
1,633,61504
1,634,61609
1,635,61566
1,636,61567
1,637,61617
1,638,61568
1,639,61593
1,640,61564
1,641,61562
1,642,61591
1,643,61562
1,644,61598
1,645,61523
1,646,61585
1,647,61578
1,648,61571
1,649,61587
1,650,61574
1,651,61581
1,652,61588
1,653,61536
1,654,61586
1,655,61557
1,656,61568
1,657,61573
1,658,61565
1,659,61583
1,660,61534
1,661,61563
1,662,61565
1,663,61552
1,664,61594
1,665,61562
1,666,61587
1,667,61561
1,668,61616
1,669,61590
1,670,61558
1,671,61560
1,672,61538
1,673,61599
1,674,61564
1,675,61552
1,676,61583
1,677,61544
1,678,61557
1,679,61581
1,680,61524
1,681,61619
1,682,61558
1,683,61605
1,684,61526
1,685,61567
1,686,61628
1,687,61540
1,688,61562
1,689,61544
1,690,61516
1,691,61615
1,692,61548
1,693,61594
1,694,61526
1,695,61559
1,696,61588
1,697,61582
1,698,61563
1,699,61535
1,700,61557
1,701,61598
1,702,61607
1,703,61573
1,704,61518
1,705,61590
1,706,61571
1,707,61551
1,708,61608
1,709,61591
1,710,61586
1,711,61577
1,712,61517
1,713,61545
1,714,61562
1,715,61593
1,716,61588
1,717,61580
1,718,61564
1,719,61557
1,720,61596
1,721,61539
1,722,61577
1,723,61550
1,724,61564
1,725,61585
1,726,61566
1,727,61554
1,728,61602
1,729,61593
1,730,61562
1,731,61558
1,732,61575
1,733,61564
1,734,61592
1,735,61591
1,736,61596
1,737,61624
1,738,61581
1,739,61563
1,740,61565
1,741,61556
1,742,61590
1,743,61548
1,744,61547
1,745,61589
1,746,61544
1,747,61581
1,748,61528
1,749,61559
1,750,61575
1,751,61570
1,752,61593
1,753,61521
1,754,61552
1,755,61565
1,756,61566
1,757,61617
1,758,61558
1,759,61591
1,760,61557
1,761,61538
1,762,61547
1,763,61573
1,764,61602
1,765,61582
1,766,61588
1,767,61567
1,768,61549
1,769,61602
1,770,61560
1,771,61583
1,772,61621
1,773,61564
1,774,61559
1,775,61562
1,776,61588
1,777,61604
1,778,61579
1,779,61612
1,780,61548
1,781,61553
1,782,61592
1,783,61534
1,784,61555
1,785,61588
1,786,61549
1,787,61570
1,788,61520
1,789,61569
1,790,61569
1,791,61546
1,792,61561
1,793,61555
1,794,61616
1,795,61571
1,796,61581
1,797,61573
1,798,61568
1,799,61561
1,800,61590
1,801,61608
1,802,61589
1,803,61591
1,804,61581
1,805,61596
1,806,61599
1,807,61547
1,808,61600
1,809,61586
1,810,61547
1,811,61576
1,812,61582
1,813,61593
1,814,61556
1,815,61560
1,816,61580
1,817,61541
1,818,61591
1,819,61559
1,820,61548
1,821,61592
1,822,61563
1,823,61615
1,824,61517
1,825,61603
1,826,61562
1,827,61541
1,828,61563
1,829,61565
1,830,61574
1,831,61566
1,832,61573
1,833,61595
1,834,61547
1,835,61582
1,836,61580
1,837,61610
1,838,61589
1,839,61544
1,840,61601
1,841,61594
1,842,61560
1,843,61580
1,844,61545
1,845,61569
1,846,61538
1,847,61585
1,848,61596
1,849,61557
1,850,61591
1,851,61544
1,852,61596
1,853,61558
1,854,61557
1,855,61621
1,856,61587
1,857,61578
1,858,61566
1,859,61552
1,860,61560
1,861,61536
1,862,61544
1,863,61570
1,864,61573
1,865,61570
1,866,61544
1,867,61571
1,868,61517
1,869,61578
1,870,61609
1,871,61578
1,872,61596
1,873,61563
1,874,61546
1,875,61561
1,876,61544
1,877,61582
1,878,61543
1,879,61577
1,880,61584
1,881,61560
1,882,61616
1,883,61562
1,884,61580
1,885,61567
1,886,61576
1,887,61577
1,888,61567
1,889,61590
1,890,61569
1,891,61568
1,892,61586
1,893,61559
1,894,61573
1,895,61567
1,896,61543
1,897,61584
1,898,61564
1,899,61599
1,900,61564
1,901,61563
1,902,61589
1,903,61588
1,904,61608
1,905,61557
1,906,61588
1,907,61590
1,908,61516
1,909,61602
1,910,61588
1,911,61584
1,912,61594
1,913,61569
1,914,61551
1,915,61557
1,916,61567
1,917,61540
1,918,61590
1,919,61576
1,920,61527
1,921,61565
1,922,61576
1,923,61599
1,924,61576
1,925,61579
1,926,61611
1,927,61583
1,928,61549
1,929,61590
1,930,61531
1,931,61555
1,932,61559
1,933,61557
1,934,61572
1,935,61559
1,936,61578
1,937,61576
1,938,61538
1,939,61597
1,940,61579
1,941,61593
1,942,61549
1,943,61592
1,944,61567
1,945,61622
1,946,61614
1,947,61579
1,948,61599
1,949,61559
1,950,61569
1,951,61552
1,952,61547
1,953,61548
1,954,61543
1,955,61558
1,956,61598
1,957,61548
1,958,61560
1,959,61527
1,960,61571
1,961,61583
1,962,61622
1,963,61595
1,964,61549
1,965,61548
1,966,61543
1,967,61583
1,968,61576
1,969,61564
1,970,61558
1,971,61538
1,972,61574
1,973,61558
1,974,61496
1,975,61584
1,976,61561
1,977,61549
1,978,61600
1,979,61547
1,980,61585
1,981,61534
1,982,61553
1,983,61614
1,984,61572
1,985,61603
1,986,61573
1,987,61571
1,988,61563
1,989,61561
1,990,61609
1,991,61582
1,992,61583
1,993,61600
1,994,61589
1,995,61590
1,996,61558
1,997,61583
1,998,61567
1,999,61574
1,1000,61604
1,1001,61560
1,1002,61581
1,1003,61600
1,1004,61557
1,1005,61576
1,1006,61571
1,1007,61602
1,1008,61528
1,1009,61574
1,1010,61567
1,1011,61548
1,1012,61570
1,1013,61585
1,1014,61501
1,1015,61611
1,1016,61596
1,1017,61596
1,1018,61534
1,1019,61567
1,1020,61568
1,1021,61550
1,1022,61583
1,1023,61562
1,1024,61595
1,1025,61605
1,1026,61550
1,1027,61543
1,1028,61594
1,1029,61614
1,1030,61601
1,1031,61523
1,1032,61625
1,1033,61575
1,1034,61563
1,1035,61573
1,1036,61589
1,1037,61586
1,1038,61582
1,1039,61580
1,1040,61550
1,1041,61603
1,1042,61575
1,1043,61578
1,1044,61619
1,1045,61596
1,1046,61595
1,1047,61606
1,1048,61561
1,1049,61597
1,1050,61595
1,1051,61588
1,1052,61582
1,1053,61580
1,1054,61615
1,1055,61548
1,1056,61585
1,1057,61584
1,1058,61527
1,1059,61584
1,1060,61545
1,1061,61587
1,1062,61573
1,1063,61591
1,1064,61586
1,1065,61584
1,1066,61606
1,1067,61553
1,1068,61553
1,1069,61596
1,1070,61545
1,1071,61630
1,1072,61578
1,1073,61569
1,1074,61570
1,1075,61581
1,1076,61588
1,1077,61582
1,1078,61620
1,1079,61592
1,1080,61564
1,1081,61580
1,1082,61554
1,1083,61588
1,1084,61554
1,1085,61597
1,1086,61626
1,1087,61549
1,1088,61573
1,1089,61562
1,1090,61535
1,1091,61601
1,1092,61540
1,1093,61579
1,1094,61569
1,1095,61604
1,1096,61587
1,1097,61559
1,1098,61581
1,1099,61573
1,1100,61601
1,1101,61570
1,1102,61581
1,1103,61609
1,1104,61562
1,1105,61591
1,1106,61585
1,1107,61572
1,1108,61597
1,1109,61551
1,1110,61601
1,1111,61564
1,1112,61579
1,1113,61618
1,1114,61573
1,1115,61593
1,1116,61582
1,1117,61557
1,1118,61605
1,1119,61599
1,1120,61635
1,1121,61601
1,1122,61597
1,1123,61609
1,1124,61592
1,1125,61623
1,1126,61575
1,1127,61605
1,1128,61600
1,1129,61587
1,1130,61614
1,1131,61576
1,1132,61589
1,1133,61605
1,1134,61536
1,1135,61565
1,1136,61572
1,1137,61571
1,1138,61595
1,1139,61591
1,1140,61620
1,1141,61551
1,1142,61627
1,1143,61600
1,1144,61574
1,1145,61591
1,1146,61623
1,1147,61609
1,1148,61604
1,1149,61567
1,1150,61607
1,1151,61598
1,1152,61623
1,1153,61566
1,1154,61603
1,1155,61604
1,1156,61534
1,1157,61635
1,1158,61581
1,1159,61596
1,1160,61596
1,1161,61601
1,1162,61616
1,1163,61590
1,1164,61605
1,1165,61582
1,1166,61594
1,1167,61578
1,1168,61602
1,1169,61623
1,1170,61572
1,1171,61590
1,1172,61610
1,1173,61576
1,1174,61600
1,1175,61580
1,1176,61553
1,1177,61610
1,1178,61582
1,1179,61641
1,1180,61609
1,1181,61617
1,1182,61555
1,1183,61544
1,1184,61624
1,1185,61563
1,1186,61622
1,1187,61567
1,1188,61601
1,1189,61598
1,1190,61581
1,1191,61585
1,1192,61592
1,1193,61576
1,1194,61637
1,1195,61560
1,1196,61587
1,1197,61620
1,1198,61561
1,1199,61609
1,1200,61592
1,1201,61635
1,1202,61600
1,1203,61614
1,1204,61585
1,1205,61583
1,1206,61626
1,1207,61586
1,1208,61595
1,1209,61558
1,1210,61579
1,1211,61637
1,1212,61560
1,1213,61621
1,1214,61586
1,1215,61573
1,1216,61624
1,1217,61603
1,1218,61619
1,1219,61625
1,1220,61608
1,1221,61655
1,1222,61616
1,1223,61630
1,1224,61599
1,1225,61598
1,1226,61628
1,1227,61659
1,1228,61621
1,1229,61593
1,1230,61656
1,1231,61608
1,1232,61595
1,1233,61664
1,1234,61614
1,1235,61630
1,1236,61632
1,1237,61617
1,1238,61671
1,1239,61633
1,1240,61633
1,1241,61632
1,1242,61667
1,1243,61642
1,1244,61642
1,1245,61644
1,1246,61656
1,1247,61668
1,1248,61671
1,1249,61625
1,1250,61680
1,1251,61639
1,1252,61644
1,1253,61676
1,1254,61682
1,1255,61632
1,1256,61599
1,1257,61642
1,1258,61653
1,1259,61651
1,1260,61685
1,1261,61634
1,1262,61656
1,1263,61644
1,1264,61606
1,1265,61677
1,1266,61642
1,1267,61682
1,1268,61645
1,1269,61638
1,1270,61655
1,1271,61661
1,1272,61651
1,1273,61620
1,1274,61681
1,1275,61668
1,1276,61659
1,1277,61707
1,1278,61665
1,1279,61672
1,1280,61730
1,1281,61618
1,1282,61636
1,1283,61688
1,1284,61674
1,1285,61668
1,1286,61643
1,1287,61723
1,1288,61692
1,1289,61679
1,1290,61710
1,1291,61637
1,1292,61700
1,1293,61688
1,1294,61697
1,1295,61673
1,1296,61634
1,1297,61673
1,1298,61622
1,1299,61722
1,1300,61681
1,1301,61690
1,1302,61682
1,1303,61649
1,1304,61763
1,1305,61694
1,1306,61662
1,1307,61682
1,1308,61715
1,1309,61678
1,1310,61669
1,1311,61683
1,1312,61692
1,1313,61698
1,1314,61715
1,1315,61647
1,1316,61697
1,1317,61728
1,1318,61667
1,1319,61713
1,1320,61670
1,1321,61708
1,1322,61675
1,1323,61704
1,1324,61680
1,1325,61686
1,1326,61682
1,1327,61710
1,1328,61639
1,1329,61667
1,1330,61627
1,1331,61655
1,1332,61650
1,1333,61608
1,1334,61648
1,1335,61594
1,1336,61556
1,1337,61558
1,1338,61508
1,1339,61181
1,1340,70053
