1,1,89624
1,2,89734
1,3,90155
1,4,90317
1,5,90635
1,6,90664
1,7,90966
1,8,91204
1,9,91511
1,10,91495
1,11,91919
1,12,92136
1,13,92247
1,14,92289
1,15,92566
1,16,92789
1,17,93044
1,18,93206
1,19,93485
1,20,93579
1,21,93762
1,22,94087
1,23,94393
1,24,94259
1,25,94708
1,26,94782
1,27,94911
1,28,95199
1,29,95232
1,30,95435
1,31,95524
1,32,95613
1,33,95851
1,34,96093
1,35,96059
1,36,96354
1,37,96470
1,38,96431
1,39,96768
1,40,96627
1,41,96840
1,42,96945
1,43,97561
1,44,97595
1,45,97339
1,46,97354
1,47,97563
1,48,97776
1,49,97878
1,50,97843
1,51,98012
1,52,97961
1,53,98062
1,54,98226
1,55,98484
1,56,98449
1,57,98479
1,58,98478
1,59,98716
1,60,98896
1,61,98868
1,62,98990
1,63,99071
1,64,99054
1,65,99128
1,66,99181
1,67,98987
1,68,99109
1,69,99264
1,70,99078
1,71,98974
1,72,98714
1,73,98325
1,74,98118
1,75,97624
1,76,97012
1,77,96167
1,78,94961
1,79,93872
1,80,91988
1,81,90399
1,82,88498
1,83,86544
1,84,84371
1,85,82316
1,86,80301
1,87,78404
1,88,76696
1,89,75025
1,90,73535
1,91,72142
1,92,70829
1,93,69831
1,94,68935
1,95,68165
1,96,67400
1,97,66835
1,98,66275
1,99,65917
1,100,65541
1,101,65232
1,102,64976
1,103,64730
1,104,64517
1,105,64377
1,106,64253
1,107,64156
1,108,64043
1,109,63956
1,110,63863
1,111,63839
1,112,63818
1,113,63836
1,114,63766
1,115,63733
1,116,63710
1,117,63719
1,118,63692
1,119,63679
1,120,63659
1,121,63676
1,122,63653
1,123,63655
1,124,63643
1,125,63651
1,126,63667
1,127,63601
1,128,63624
1,129,63660
1,130,63562
1,131,63590
1,132,63610
1,133,63580
1,134,63550
1,135,63556
1,136,63610
1,137,63594
1,138,63603
1,139,63593
1,140,63587
1,141,63573
1,142,63594
1,143,63559
1,144,63572
1,145,63546
1,146,63591
1,147,63545
1,148,63550
1,149,63561
1,150,63576
1,151,63569
1,152,63527
1,153,63554
1,154,63583
1,155,63591
1,156,63628
1,157,63562
1,158,63586
1,159,63589
1,160,63576
1,161,63612
1,162,63591
1,163,63615
1,164,63560
1,165,63589
1,166,63593
1,167,63613
1,168,63608
1,169,63664
1,170,63677
1,171,63692
1,172,63732
1,173,63763
1,174,63763
1,175,63703
1,176,63758
1,177,63782
1,178,63829
1,179,63848
1,180,63859
1,181,63852
1,182,63906
1,183,63865
1,184,63837
1,185,63793
1,186,63873
1,187,63852
1,188,63904
1,189,63914
1,190,63984
1,191,63976
1,192,64086
1,193,64229
1,194,64368
1,195,64578
1,196,64799
1,197,65072
1,198,65328
1,199,65735
1,200,66274
1,201,66897
1,202,67579
1,203,68301
1,204,69045
1,205,69895
1,206,70561
1,207,71549
1,208,72670
1,209,74023
1,210,75163
1,211,76721
1,212,77788
1,213,78897
1,214,80032
1,215,81063
1,216,82198
1,217,83645
1,218,84948
1,219,86414
1,220,87786
1,221,89101
1,222,90023
1,223,90991
1,224,91923
1,225,92752
1,226,93523
1,227,94614
1,228,95654
1,229,96614
1,230,97732
1,231,98636
1,232,99016
1,233,99683
1,234,100440
1,235,100900
1,236,101528
1,237,102093
1,238,102968
1,239,103941
1,240,104683
1,241,105217
1,242,105839
1,243,106131
1,244,106667
1,245,106957
1,246,107624
1,247,108089
1,248,108894
1,249,109315
1,250,109909
1,251,110390
1,252,110841
1,253,111409
1,254,111820
1,255,112035
1,256,112222
1,257,112880
1,258,113522
1,259,113668
1,260,113921
1,261,114497
1,262,114686
1,263,114993
1,264,115547
1,265,115724
1,266,115862
1,267,116159
1,268,116643
1,269,116588
1,270,117043
1,271,117534
1,272,117540
1,273,117758
1,274,117762
1,275,118127
1,276,118537
1,277,118506
1,278,118590
1,279,118654
1,280,118997
1,281,118929
1,282,119320
1,283,119396
1,284,119429
1,285,119671
1,286,119507
1,287,119694
1,288,119739
1,289,119679
1,290,119988
1,291,120037
1,292,120350
1,293,120330
1,294,120382
1,295,120182
1,296,120265
1,297,120488
1,298,120474
1,299,120601
1,300,120663
1,301,120866
1,302,120707
1,303,120822
1,304,120814
1,305,120882
1,306,120671
1,307,121064
1,308,120859
1,309,120821
1,310,120928
1,311,120724
1,312,120916
1,313,121015
1,314,120808
1,315,120591
1,316,120665
1,317,120704
1,318,120995
1,319,120830
1,320,120726
1,321,120800
1,322,120996
1,323,120910
1,324,121143
1,325,121012
1,326,120877
1,327,120922
1,328,120793
1,329,120857
1,330,120882
1,331,120734
1,332,120679
1,333,120753
1,334,120574
1,335,120835
1,336,120775
1,337,120614
1,338,120725
1,339,120301
1,340,120469
1,341,120798
1,342,120501
1,343,120472
1,344,120299
1,345,120324
1,346,120107
1,347,120608
1,348,120420
1,349,120529
1,350,120452
1,351,120393
1,352,120622
1,353,120383
1,354,120352
1,355,120488
1,356,120202
1,357,120327
1,358,120195
1,359,120157
1,360,119966
1,361,120094
1,362,119921
1,363,119912
1,364,119937
1,365,119940
1,366,119887
1,367,119905
1,368,120015
1,369,119916
1,370,119724
1,371,119915
1,372,119810
1,373,119695
1,374,119722
1,375,119552
1,376,119821
1,377,119484
1,378,119535
1,379,119599
1,380,119545
1,381,119544
1,382,119791
1,383,119467
1,384,119682
1,385,119450
1,386,119518
1,387,119353
1,388,119029
1,389,119230
1,390,119434
1,391,119342
1,392,119345
1,393,119119
1,394,119273
1,395,119082
1,396,118921
1,397,119039
1,398,119103
1,399,118934
1,400,119036
1,401,118892
1,402,118875
1,403,118859
1,404,118821
1,405,118905
1,406,118846
1,407,118708
1,408,118699
1,409,118852
1,410,118718
1,411,118501
1,412,118465
1,413,118494
1,414,118605
1,415,118326
1,416,118305
1,417,118487
1,418,118404
1,419,118354
1,420,118327
1,421,118221
1,422,118273
1,423,118202
1,424,118344
1,425,118175
1,426,118006
1,427,117966
1,428,117944
1,429,117951
1,430,117885
1,431,117775
1,432,117984
1,433,117903
1,434,118072
1,435,117899
1,436,117551
1,437,117583
1,438,117549
1,439,117461
1,440,117359
1,441,117330
1,442,117359
1,443,117309
1,444,117345
1,445,117409
1,446,117120
1,447,117292
1,448,117176
1,449,117236
1,450,116984
1,451,116977
1,452,116852
1,453,117252
1,454,117044
1,455,116909
1,456,116818
1,457,116798
1,458,116819
1,459,116858
1,460,116626
1,461,116699
1,462,116504
1,463,116326
1,464,116676
1,465,116556
1,466,116463
1,467,116281
1,468,116281
1,469,116503
1,470,116426
1,471,116184
1,472,116249
1,473,116277
1,474,116132
1,475,116351
1,476,116125
1,477,115969
1,478,116078
1,479,116053
1,480,115987
1,481,115781
1,482,115877
1,483,115693
1,484,115790
1,485,115558
1,486,115880
1,487,115541
1,488,115435
1,489,115538
1,490,115177
1,491,115207
1,492,115121
1,493,115270
1,494,115138
1,495,115003
1,496,115024
1,497,114907
1,498,115126
1,499,115046
1,500,114978
1,501,114764
1,502,114985
1,503,114959
1,504,114819
1,505,114676
1,506,114757
1,507,114604
1,508,114388
1,509,114485
1,510,114548
1,511,114497
1,512,114565
1,513,114427
1,514,114397
1,515,114314
1,516,114294
1,517,114039
1,518,114104
1,519,114049
1,520,113980
1,521,113936
1,522,113848
1,523,113823
1,524,113795
1,525,113880
1,526,113622
1,527,113645
1,528,113652
1,529,113564
1,530,113538
1,531,113377
1,532,113199
1,533,113227
1,534,113289
1,535,113249
1,536,113178
1,537,113295
1,538,112843
1,539,113025
1,540,113139
1,541,112929
1,542,112902
1,543,112773
1,544,112858
1,545,112818
1,546,112657
1,547,112644
1,548,112408
1,549,112419
1,550,112512
1,551,112494
1,552,112520
1,553,112468
1,554,112358
1,555,112399
1,556,112417
1,557,112419
1,558,112031
1,559,111971
1,560,111814
1,561,111845
1,562,111856
1,563,112001
1,564,111933
1,565,111588
1,566,111632
1,567,111364
1,568,111474
1,569,111509
1,570,111404
1,571,111581
1,572,111580
1,573,111274
1,574,111669
1,575,111200
1,576,111150
1,577,111254
1,578,111101
1,579,111042
1,580,110809
1,581,110976
1,582,110950
1,583,110806
1,584,110865
1,585,110763
1,586,110564
1,587,110456
1,588,110427
1,589,110635
1,590,110819
1,591,110367
1,592,110213
1,593,110401
1,594,110350
1,595,110093
1,596,110186
1,597,110040
1,598,109825
1,599,110182
1,600,110112
1,601,109939
1,602,110013
1,603,109969
1,604,109663
1,605,109664
1,606,109581
1,607,109588
1,608,109568
1,609,109313
1,610,109480
1,611,109215
1,612,109346
1,613,109335
1,614,109313
1,615,109387
1,616,109022
1,617,109017
1,618,109026
1,619,108878
1,620,109177
1,621,108797
1,622,108724
1,623,108855
1,624,108641
1,625,108665
1,626,108511
1,627,108573
1,628,108621
1,629,108416
1,630,108377
1,631,108379
1,632,108540
1,633,108227
1,634,108202
1,635,108084
1,636,108171
1,637,108118
1,638,107998
1,639,108037
1,640,108055
1,641,107732
1,642,107514
1,643,107780
1,644,107719
1,645,107590
1,646,107453
1,647,107574
1,648,107658
1,649,107200
1,650,107337
1,651,107208
1,652,107225
1,653,107093
1,654,107162
1,655,106970
1,656,106915
1,657,106988
1,658,107053
1,659,106861
1,660,106911
1,661,106753
1,662,106800
1,663,106699
1,664,106471
1,665,106427
1,666,106430
1,667,106350
1,668,106315
1,669,106207
1,670,106176
1,671,105988
1,672,105873
1,673,105960
1,674,105977
1,675,106069
1,676,105908
1,677,105954
1,678,105701
1,679,105649
1,680,105631
1,681,105665
1,682,105560
1,683,105430
1,684,105457
1,685,105307
1,686,105328
1,687,105246
1,688,105144
1,689,105197
1,690,105032
1,691,105105
1,692,105097
1,693,104868
1,694,104957
1,695,104898
1,696,104684
1,697,104565
1,698,104559
1,699,104533
1,700,104580
1,701,104588
1,702,104455
1,703,104421
1,704,104433
1,705,104119
1,706,104321
1,707,104069
1,708,104009
1,709,104093
1,710,103753
1,711,103986
1,712,103908
1,713,103792
1,714,103622
1,715,103704
1,716,103714
1,717,103666
1,718,103708
1,719,103340
1,720,103357
1,721,103321
1,722,103208
1,723,103391
1,724,103244
1,725,103098
1,726,103026
1,727,102841
1,728,102728
1,729,102858
1,730,102683
1,731,102681
1,732,102604
1,733,102674
1,734,102692
1,735,102401
1,736,102427
1,737,102362
1,738,102339
1,739,102345
1,740,102296
1,741,102160
1,742,101932
1,743,102079
1,744,102052
1,745,101749
1,746,101736
1,747,101926
1,748,101658
1,749,101614
1,750,101601
1,751,101266
1,752,101393
1,753,101440
1,754,101313
1,755,101413
1,756,101335
1,757,100945
1,758,100974
1,759,101093
1,760,101085
1,761,101088
1,762,100987
1,763,100905
1,764,100849
1,765,100765
1,766,100870
1,767,100716
1,768,100610
1,769,100460
1,770,100371
1,771,100370
1,772,100370
1,773,100291
1,774,100239
1,775,100232
1,776,100113
1,777,100139
1,778,99952
1,779,100042
1,780,99846
1,781,99821
1,782,99700
1,783,99769
1,784,99620
1,785,99634
1,786,99411
1,787,99461
1,788,99437
1,789,99362
1,790,99005
1,791,99180
1,792,99295
1,793,99230
1,794,99125
1,795,99115
1,796,98829
1,797,98831
1,798,98825
1,799,98408
1,800,98534
1,801,98605
1,802,98543
1,803,98474
1,804,98258
1,805,98245
1,806,98327
1,807,98481
1,808,98125
1,809,98148
1,810,98235
1,811,97958
1,812,97932
1,813,97823
1,814,97912
1,815,97880
1,816,97743
1,817,97663
1,818,97720
1,819,97418
1,820,97329
1,821,97540
1,822,97449
1,823,97441
1,824,97394
1,825,97142
1,826,97253
1,827,97057
1,828,97090
1,829,97002
1,830,97000
1,831,96897
1,832,96830
1,833,96820
1,834,96688
1,835,96514
1,836,96381
1,837,96619
1,838,96486
1,839,96461
1,840,96258
1,841,96419
1,842,96131
1,843,96214
1,844,96008
1,845,96019
1,846,95915
1,847,95940
1,848,95789
1,849,95717
1,850,95764
1,851,95716
1,852,95660
1,853,95470
1,854,95574
1,855,95487
1,856,95422
1,857,95306
1,858,95074
1,859,95208
1,860,95057
1,861,95086
1,862,94974
1,863,94965
1,864,94840
1,865,94767
1,866,94787
1,867,94690
1,868,94927
1,869,94591
1,870,94543
1,871,94389
1,872,94243
1,873,94396
1,874,94373
1,875,94391
1,876,94231
1,877,94280
1,878,94006
1,879,94105
1,880,94080
1,881,93898
1,882,93961
1,883,93795
1,884,93788
1,885,93689
1,886,93642
1,887,93711
1,888,93495
1,889,93178
1,890,93380
1,891,93355
1,892,93215
1,893,93244
1,894,93238
1,895,93157
1,896,93020
1,897,92871
1,898,92841
1,899,92757
1,900,92656
1,901,92687
1,902,92742
1,903,92744
1,904,92616
1,905,92486
1,906,92521
1,907,92336
1,908,92209
1,909,92216
1,910,92250
1,911,92344
1,912,91965
1,913,92074
1,914,91943
1,915,91859
1,916,91661
1,917,91523
1,918,91694
1,919,91720
1,920,91481
1,921,91568
1,922,91372
1,923,91391
1,924,91311
1,925,91467
1,926,91110
1,927,91251
1,928,91069
1,929,91092
1,930,91065
1,931,90984
1,932,90809
1,933,90776
1,934,90694
1,935,90698
1,936,90625
1,937,90486
1,938,90725
1,939,90445
1,940,90350
1,941,90324
1,942,90181
1,943,90183
1,944,90222
1,945,89927
1,946,90095
1,947,89936
1,948,89876
1,949,89944
1,950,89824
1,951,89780
1,952,89697
1,953,89733
1,954,89540
1,955,89501
1,956,89411
1,957,89307
1,958,89448
1,959,89265
1,960,89239
1,961,89130
1,962,89084
1,963,89101
1,964,89017
1,965,88976
1,966,88763
1,967,88877
1,968,88832
1,969,88686
1,970,88735
1,971,88532
1,972,88517
1,973,88407
1,974,88428
1,975,88533
1,976,88333
1,977,88333
1,978,88382
1,979,88240
1,980,88183
1,981,88051
1,982,87946
1,983,87909
1,984,87897
1,985,87699
1,986,87662
1,987,87752
1,988,87549
1,989,87520
1,990,87748
1,991,87505
1,992,87359
1,993,87404
1,994,87348
1,995,87225
1,996,87261
1,997,87188
1,998,87120
1,999,87127
1,1000,86904
1,1001,86894
1,1002,86628
1,1003,86791
1,1004,86737
1,1005,86673
1,1006,86680
1,1007,86444
1,1008,86458
1,1009,86470
1,1010,86478
1,1011,86322
1,1012,86275
1,1013,86100
1,1014,86194
1,1015,86192
1,1016,86126
1,1017,86148
1,1018,85975
1,1019,86071
1,1020,85921
1,1021,85830
1,1022,85794
1,1023,85678
1,1024,85682
1,1025,85642
1,1026,85549
1,1027,85498
1,1028,85411
1,1029,85249
1,1030,85267
1,1031,85335
1,1032,85225
1,1033,85154
1,1034,85024
1,1035,85046
1,1036,84954
1,1037,84951
1,1038,84914
1,1039,84781
1,1040,84688
1,1041,84744
1,1042,84674
1,1043,84478
1,1044,84503
1,1045,84440
1,1046,84463
1,1047,84348
1,1048,84187
1,1049,84304
1,1050,84201
1,1051,84191
1,1052,84149
1,1053,84039
1,1054,83923
1,1055,83827
1,1056,83808
1,1057,83841
1,1058,83706
1,1059,83872
1,1060,83718
1,1061,83724
1,1062,83612
1,1063,83673
1,1064,83506
1,1065,83533
1,1066,83471
1,1067,83332
1,1068,83315
1,1069,83176
1,1070,83092
1,1071,83196
1,1072,83159
1,1073,82991
1,1074,83062
1,1075,82821
1,1076,82840
1,1077,82668
1,1078,82735
1,1079,82742
1,1080,82753
1,1081,82596
1,1082,82647
1,1083,82617
1,1084,82397
1,1085,82454
1,1086,82249
1,1087,82344
1,1088,82346
1,1089,82154
1,1090,82030
1,1091,81992
1,1092,82069
1,1093,82101
1,1094,82058
1,1095,81948
1,1096,81802
1,1097,81850
1,1098,81716
1,1099,81767
1,1100,81621
1,1101,81457
1,1102,81523
1,1103,81470
1,1104,81385
1,1105,81233
1,1106,81486
1,1107,81395
1,1108,81171
1,1109,81178
1,1110,81255
1,1111,81147
1,1112,81186
1,1113,80950
1,1114,80994
1,1115,80962
1,1116,80817
1,1117,80845
1,1118,80726
1,1119,80776
1,1120,80719
1,1121,80758
1,1122,80594
1,1123,80549
1,1124,80416
1,1125,80510
1,1126,80376
1,1127,80344
1,1128,80308
1,1129,80311
1,1130,80134
1,1131,80127
1,1132,80157
1,1133,80087
1,1134,79943
1,1135,79984
1,1136,80023
1,1137,79840
1,1138,79884
1,1139,79773
1,1140,79755
1,1141,79763
1,1142,79645
1,1143,79547
1,1144,79578
1,1145,79432
1,1146,79359
1,1147,79261
1,1148,79401
1,1149,79275
1,1150,79380
1,1151,79274
1,1152,79123
1,1153,79131
1,1154,79104
1,1155,79035
1,1156,78992
1,1157,78932
1,1158,78849
1,1159,78813
1,1160,78844
1,1161,78640
1,1162,78736
1,1163,78682
1,1164,78685
1,1165,78507
1,1166,78508
1,1167,78400
1,1168,78336
1,1169,78487
1,1170,78312
1,1171,78378
1,1172,78248
1,1173,78221
1,1174,78078
1,1175,78060
1,1176,78065
1,1177,78078
1,1178,77955
1,1179,77901
1,1180,77817
1,1181,77770
1,1182,77770
1,1183,77703
1,1184,77792
1,1185,77571
1,1186,77643
1,1187,77614
1,1188,77592
1,1189,77496
1,1190,77539
1,1191,77385
1,1192,77408
1,1193,77359
1,1194,77289
1,1195,77213
1,1196,77192
1,1197,77309
1,1198,77070
1,1199,77109
1,1200,76978
1,1201,76889
1,1202,76870
1,1203,76962
1,1204,76780
1,1205,76879
1,1206,76737
1,1207,76734
1,1208,76739
1,1209,76728
1,1210,76679
1,1211,76601
1,1212,76604
1,1213,76500
1,1214,76471
1,1215,76386
1,1216,76555
1,1217,76315
1,1218,76335
1,1219,76336
1,1220,76189
1,1221,76242
1,1222,76195
1,1223,76165
1,1224,76084
1,1225,76008
1,1226,76031
1,1227,75861
1,1228,75906
1,1229,76005
1,1230,75856
1,1231,75813
1,1232,75799
1,1233,75654
1,1234,75511
1,1235,75675
1,1236,75638
1,1237,75497
1,1238,75584
1,1239,75430
1,1240,75344
1,1241,75319
1,1242,75297
1,1243,75229
1,1244,75160
1,1245,75163
1,1246,75004
1,1247,74956
1,1248,75032
1,1249,74966
1,1250,74906
1,1251,74826
1,1252,74772
1,1253,74668
1,1254,74617
1,1255,74530
1,1256,74697
1,1257,74478
1,1258,74578
1,1259,74463
1,1260,74440
1,1261,74364
1,1262,74281
1,1263,74252
1,1264,74214
1,1265,74259
1,1266,74036
1,1267,74130
1,1268,74079
1,1269,74061
1,1270,73922
1,1271,73808
1,1272,73838
1,1273,73657
1,1274,73663
1,1275,73592
1,1276,73667
1,1277,73509
1,1278,73439
1,1279,73349
1,1280,73296
1,1281,73203
1,1282,73238
1,1283,73102
1,1284,72996
1,1285,73036
1,1286,73003
1,1287,72960
1,1288,72876
1,1289,72697
1,1290,72762
1,1291,72534
1,1292,72484
1,1293,72588
1,1294,72370
1,1295,72391
1,1296,72302
1,1297,72279
1,1298,72111
1,1299,72052
1,1300,71977
1,1301,72049
1,1302,71869
1,1303,71819
1,1304,71785
1,1305,71704
1,1306,71526
1,1307,71522
1,1308,71500
1,1309,71488
1,1310,71362
1,1311,71369
1,1312,71175
1,1313,71197
1,1314,71102
1,1315,71021
1,1316,70961
1,1317,70884
1,1318,70744
1,1319,70779
1,1320,70777
1,1321,70738
1,1322,70639
1,1323,70494
1,1324,70481
1,1325,70299
1,1326,70327
1,1327,70198
1,1328,70252
1,1329,70059
1,1330,69972
1,1331,69984
1,1332,69869
1,1333,69754
1,1334,69769
1,1335,69595
1,1336,69552
1,1337,69475
1,1338,69362
1,1339,69056
1,1340,77706
