1,1,61596
1,2,61589
1,3,61572
1,4,61625
1,5,61585
1,6,61599
1,7,61603
1,8,61581
1,9,61620
1,10,61612
1,11,61603
1,12,61577
1,13,61593
1,14,61582
1,15,61614
1,16,61630
1,17,61604
1,18,61637
1,19,61608
1,20,61553
1,21,61634
1,22,61581
1,23,61643
1,24,61615
1,25,61510
1,26,61626
1,27,61594
1,28,61628
1,29,61612
1,30,61608
1,31,61638
1,32,61597
1,33,61603
1,34,61607
1,35,61600
1,36,61616
1,37,61620
1,38,61599
1,39,61613
1,40,61592
1,41,61625
1,42,61598
1,43,61612
1,44,61635
1,45,61640
1,46,61579
1,47,61604
1,48,61594
1,49,61630
1,50,61621
1,51,61648
1,52,61571
1,53,61621
1,54,61592
1,55,61595
1,56,61602
1,57,61597
1,58,61594
1,59,61565
1,60,61616
1,61,61588
1,62,61626
1,63,61658
1,64,61599
1,65,61628
1,66,61600
1,67,61576
1,68,61651
1,69,61622
1,70,61623
1,71,61599
1,72,61585
1,73,61636
1,74,61633
1,75,61611
1,76,61583
1,77,61581
1,78,61563
1,79,61582
1,80,61601
1,81,61595
1,82,61642
1,83,61599
1,84,61576
1,85,61628
1,86,61600
1,87,61580
1,88,61605
1,89,61635
1,90,61593
1,91,61628
1,92,61642
1,93,61620
1,94,61598
1,95,61643
1,96,61597
1,97,61644
1,98,61593
1,99,61627
1,100,61629
1,101,61593
1,102,61635
1,103,61590
1,104,61605
1,105,61644
1,106,61563
1,107,61633
1,108,61585
1,109,61601
1,110,61616
1,111,61579
1,112,61642
1,113,61572
1,114,61626
1,115,61606
1,116,61630
1,117,61611
1,118,61580
1,119,61595
1,120,61593
1,121,61587
1,122,61615
1,123,61592
1,124,61614
1,125,61588
1,126,61630
1,127,61632
1,128,61576
1,129,61601
1,130,61560
1,131,61628
1,132,61606
1,133,61601
1,134,61643
1,135,61594
1,136,61615
1,137,61642
1,138,61592
1,139,61629
1,140,61598
1,141,61637
1,142,61579
1,143,61589
1,144,61623
1,145,61566
1,146,61587
1,147,61612
1,148,61589
1,149,61628
1,150,61606
1,151,61614
1,152,61616
1,153,61627
1,154,61618
1,155,61607
1,156,61604
1,157,61580
1,158,61614
1,159,61648
1,160,61602
1,161,61615
1,162,61594
1,163,61600
1,164,61628
1,165,61628
1,166,61610
1,167,61605
1,168,61609
1,169,61569
1,170,61624
1,171,61595
1,172,61543
1,173,61667
1,174,61631
1,175,61595
1,176,61609
1,177,61598
1,178,61605
1,179,61579
1,180,61628
1,181,61606
1,182,61590
1,183,61595
1,184,61573
1,185,61643
1,186,61597
1,187,61573
1,188,61639
1,189,61598
1,190,61608
1,191,61603
1,192,61615
1,193,61607
1,194,61601
1,195,61623
1,196,61626
1,197,61594
1,198,61650
1,199,61607
1,200,61605
1,201,61592
1,202,61622
1,203,61578
1,204,61576
1,205,61638
1,206,61621
1,207,61628
1,208,61599
1,209,61582
1,210,61631
1,211,61593
1,212,61622
1,213,61628
1,214,61602
1,215,61661
1,216,61610
1,217,61612
1,218,61629
1,219,61584
1,220,61598
1,221,61564
1,222,61591
1,223,61656
1,224,61570
1,225,61625
1,226,61588
1,227,61600
1,228,61617
1,229,61610
1,230,61629
1,231,61563
1,232,61631
1,233,61597
1,234,61583
1,235,61601
1,236,61595
1,237,61592
1,238,61587
1,239,61631
1,240,61630
1,241,61596
1,242,61621
1,243,61592
1,244,61608
1,245,61605
1,246,61587
1,247,61602
1,248,61585
1,249,61638
1,250,61633
1,251,61604
1,252,61590
1,253,61633
1,254,61619
1,255,61612
1,256,61591
1,257,61646
1,258,61589
1,259,61627
1,260,61612
1,261,61585
1,262,61602
1,263,61591
1,264,61621
1,265,61638
1,266,61621
1,267,61620
1,268,61578
1,269,61657
1,270,61596
1,271,61637
1,272,61619
1,273,61598
1,274,61586
1,275,61617
1,276,61632
1,277,61600
1,278,61604
1,279,61622
1,280,61624
1,281,61613
1,282,61569
1,283,61641
1,284,61630
1,285,61619
1,286,61661
1,287,61592
1,288,61591
1,289,61611
1,290,61603
1,291,61603
1,292,61616
1,293,61625
1,294,61612
1,295,61618
1,296,61633
1,297,61596
1,298,61625
1,299,61588
1,300,61620
1,301,61575
1,302,61552
1,303,61600
1,304,61629
1,305,61604
1,306,61632
1,307,61611
1,308,61617
1,309,61605
1,310,61624
1,311,61647
1,312,61600
1,313,61646
1,314,61620
1,315,61599
1,316,61619
1,317,61588
1,318,61608
1,319,61611
1,320,61631
1,321,61644
1,322,61573
1,323,61632
1,324,61577
1,325,61573
1,326,61600
1,327,61554
1,328,61584
1,329,61563
1,330,61609
1,331,61594
1,332,61586
1,333,61621
1,334,61612
1,335,61646
1,336,61596
1,337,61632
1,338,61623
1,339,61595
1,340,61573
1,341,61607
1,342,61613
1,343,61634
1,344,61590
1,345,61644
1,346,61602
1,347,61597
1,348,61653
1,349,61602
1,350,61653
1,351,61580
1,352,61605
1,353,61634
1,354,61572
1,355,61595
1,356,61562
1,357,61633
1,358,61632
1,359,61604
1,360,61563
1,361,61578
1,362,61589
1,363,61584
1,364,61549
1,365,61634
1,366,61561
1,367,61657
1,368,61616
1,369,61638
1,370,61635
1,371,61593
1,372,61613
1,373,61573
1,374,61625
1,375,61623
1,376,61617
1,377,61599
1,378,61591
1,379,61620
1,380,61611
1,381,61582
1,382,61561
1,383,61593
1,384,61598
1,385,61626
1,386,61619
1,387,61620
1,388,61593
1,389,61633
1,390,61575
1,391,61625
1,392,61636
1,393,61598
1,394,61661
1,395,61631
1,396,61631
1,397,61625
1,398,61576
1,399,61590
1,400,61630
1,401,61601
1,402,61601
1,403,61586
1,404,61587
1,405,61600
1,406,61624
1,407,61598
1,408,61576
1,409,61584
1,410,61595
1,411,61604
1,412,61623
1,413,61587
1,414,61639
1,415,61567
1,416,61611
1,417,61596
1,418,61562
1,419,61623
1,420,61603
1,421,61654
1,422,61609
1,423,61572
1,424,61603
1,425,61574
1,426,61607
1,427,61582
1,428,61617
1,429,61638
1,430,61592
1,431,61598
1,432,61628
1,433,61633
1,434,61641
1,435,61629
1,436,61631
1,437,61584
1,438,61599
1,439,61615
1,440,61594
1,441,61617
1,442,61578
1,443,61633
1,444,61577
1,445,61610
1,446,61628
1,447,61595
1,448,61597
1,449,61604
1,450,61618
1,451,61658
1,452,61588
1,453,61635
1,454,61578
1,455,61622
1,456,61616
1,457,61599
1,458,61599
1,459,61604
1,460,61625
1,461,61641
1,462,61608
1,463,61624
1,464,61635
1,465,61673
1,466,61620
1,467,61646
1,468,61629
1,469,61595
1,470,61641
1,471,61648
1,472,61603
1,473,61665
1,474,61607
1,475,61614
1,476,61616
1,477,61624
1,478,61587
1,479,61567
1,480,61630
1,481,61597
1,482,61605
1,483,61597
1,484,61578
1,485,61628
1,486,61591
1,487,61616
1,488,61624
1,489,61602
1,490,61628
1,491,61612
1,492,61626
1,493,61626
1,494,61591
1,495,61686
1,496,61551
1,497,61601
1,498,61596
1,499,61587
1,500,61649
1,501,61556
1,502,61613
1,503,61579
1,504,61565
1,505,61635
1,506,61584
1,507,61633
1,508,61632
1,509,61591
1,510,61598
1,511,61581
1,512,61613
1,513,61591
1,514,61644
1,515,61610
1,516,61573
1,517,61636
1,518,61568
1,519,61570
1,520,61618
1,521,61604
1,522,61595
1,523,61582
1,524,61569
1,525,61610
1,526,61599
1,527,61634
1,528,61626
1,529,61578
1,530,61570
1,531,61612
1,532,61601
1,533,61624
1,534,61621
1,535,61567
1,536,61589
1,537,61636
1,538,61594
1,539,61615
1,540,61602
1,541,61654
1,542,61580
1,543,61560
1,544,61636
1,545,61594
1,546,61618
1,547,61617
1,548,61644
1,549,61585
1,550,61610
1,551,61640
1,552,61622
1,553,61606
1,554,61602
1,555,61596
1,556,61603
1,557,61587
1,558,61607
1,559,61612
1,560,61563
1,561,61606
1,562,61597
1,563,61587
1,564,61600
1,565,61560
1,566,61633
1,567,61542
1,568,61644
1,569,61608
1,570,61585
1,571,61584
1,572,61623
1,573,61635
1,574,61604
1,575,61630
1,576,61619
1,577,61621
1,578,61642
1,579,61608
1,580,61560
1,581,61625
1,582,61620
1,583,61632
1,584,61588
1,585,61575
1,586,61625
1,587,61584
1,588,61596
1,589,61616
1,590,61600
1,591,61623
1,592,61558
1,593,61632
1,594,61608
1,595,61664
1,596,61643
1,597,61578
1,598,61592
1,599,61567
1,600,61633
1,601,61661
1,602,61567
1,603,61614
1,604,61568
1,605,61603
1,606,61594
1,607,61612
1,608,61672
1,609,61643
1,610,61630
1,611,61588
1,612,61613
1,613,61659
1,614,61563
1,615,61606
1,616,61618
1,617,61620
1,618,61633
1,619,61620
1,620,61638
1,621,61602
1,622,61580
1,623,61646
1,624,61607
1,625,61649
1,626,61612
1,627,61625
1,628,61653
1,629,61608
1,630,61620
1,631,61590
1,632,61626
1,633,61638
1,634,61613
1,635,61629
1,636,61568
1,637,61629
1,638,61638
1,639,61617
1,640,61612
1,641,61575
1,642,61566
1,643,61604
1,644,61617
1,645,61599
1,646,61590
1,647,61607
1,648,61584
1,649,61646
1,650,61596
1,651,61614
1,652,61595
1,653,61617
1,654,61594
1,655,61574
1,656,61593
1,657,61619
1,658,61612
1,659,61632
1,660,61600
1,661,61600
1,662,61616
1,663,61604
1,664,61651
1,665,61631
1,666,61597
1,667,61633
1,668,61601
1,669,61615
1,670,61605
1,671,61647
1,672,61646
1,673,61608
1,674,61627
1,675,61567
1,676,61599
1,677,61604
1,678,61590
1,679,61645
1,680,61601
1,681,61668
1,682,61594
1,683,61582
1,684,61646
1,685,61612
1,686,61618
1,687,61616
1,688,61623
1,689,61632
1,690,61612
1,691,61610
1,692,61598
1,693,61585
1,694,61637
1,695,61634
1,696,61607
1,697,61606
1,698,61632
1,699,61622
1,700,61615
1,701,61638
1,702,61606
1,703,61620
1,704,61613
1,705,61586
1,706,61649
1,707,61616
1,708,61619
1,709,61613
1,710,61564
1,711,61593
1,712,61576
1,713,61607
1,714,61628
1,715,61573
1,716,61648
1,717,61581
1,718,61632
1,719,61579
1,720,61589
1,721,61617
1,722,61574
1,723,61618
1,724,61614
1,725,61600
1,726,61634
1,727,61609
1,728,61613
1,729,61586
1,730,61630
1,731,61584
1,732,61601
1,733,61636
1,734,61614
1,735,61615
1,736,61617
1,737,61597
1,738,61662
1,739,61613
1,740,61635
1,741,61613
1,742,61619
1,743,61619
1,744,61622
1,745,61624
1,746,61593
1,747,61593
1,748,61612
1,749,61564
1,750,61632
1,751,61587
1,752,61671
1,753,61630
1,754,61577
1,755,61587
1,756,61599
1,757,61656
1,758,61615
1,759,61588
1,760,61608
1,761,61602
1,762,61645
1,763,61624
1,764,61595
1,765,61626
1,766,61606
1,767,61579
1,768,61614
1,769,61614
1,770,61616
1,771,61594
1,772,61648
1,773,61619
1,774,61616
1,775,61649
1,776,61663
1,777,61590
1,778,61595
1,779,61599
1,780,61624
1,781,61621
1,782,61606
1,783,61575
1,784,61643
1,785,61631
1,786,61592
1,787,61640
1,788,61599
1,789,61637
1,790,61612
1,791,61596
1,792,61619
1,793,61606
1,794,61629
1,795,61619
1,796,61628
1,797,61624
1,798,61633
1,799,61630
1,800,61571
1,801,61623
1,802,61612
1,803,61654
1,804,61634
1,805,61595
1,806,61609
1,807,61645
1,808,61624
1,809,61626
1,810,61607
1,811,61619
1,812,61605
1,813,61614
1,814,61637
1,815,61627
1,816,61630
1,817,61641
1,818,61563
1,819,61603
1,820,61585
1,821,61641
1,822,61610
1,823,61606
1,824,61618
1,825,61585
1,826,61614
1,827,61606
1,828,61598
1,829,61573
1,830,61598
1,831,61599
1,832,61627
1,833,61599
1,834,61619
1,835,61600
1,836,61619
1,837,61614
1,838,61591
1,839,61631
1,840,61572
1,841,61642
1,842,61615
1,843,61597
1,844,61569
1,845,61641
1,846,61616
1,847,61627
1,848,61636
1,849,61619
1,850,61578
1,851,61645
1,852,61615
1,853,61652
1,854,61582
1,855,61605
1,856,61586
1,857,61557
1,858,61651
1,859,61646
1,860,61630
1,861,61581
1,862,61602
1,863,61638
1,864,61611
1,865,61630
1,866,61624
1,867,61623
1,868,61650
1,869,61622
1,870,61659
1,871,61615
1,872,61565
1,873,61614
1,874,61601
1,875,61643
1,876,61598
1,877,61594
1,878,61670
1,879,61572
1,880,61617
1,881,61598
1,882,61584
1,883,61631
1,884,61575
1,885,61629
1,886,61598
1,887,61624
1,888,61560
1,889,61573
1,890,61612
1,891,61560
1,892,61611
1,893,61653
1,894,61579
1,895,61607
1,896,61608
1,897,61611
1,898,61582
1,899,61614
1,900,61649
1,901,61583
1,902,61608
1,903,61628
1,904,61576
1,905,61651
1,906,61575
1,907,61616
1,908,61629
1,909,61607
1,910,61617
1,911,61614
1,912,61631
1,913,61625
1,914,61609
1,915,61596
1,916,61566
1,917,61578
1,918,61644
1,919,61622
1,920,61604
1,921,61649
1,922,61637
1,923,61620
1,924,61629
1,925,61624
1,926,61628
1,927,61604
1,928,61605
1,929,61636
1,930,61636
1,931,61629
1,932,61616
1,933,61629
1,934,61643
1,935,61574
1,936,61569
1,937,61615
1,938,61597
1,939,61601
1,940,61611
1,941,61616
1,942,61596
1,943,61647
1,944,61643
1,945,61606
1,946,61656
1,947,61631
1,948,61579
1,949,61640
1,950,61562
1,951,61623
1,952,61629
1,953,61595
1,954,61638
1,955,61599
1,956,61610
1,957,61667
1,958,61597
1,959,61657
1,960,61591
1,961,61645
1,962,61648
1,963,61615
1,964,61608
1,965,61587
1,966,61654
1,967,61592
1,968,61623
1,969,61591
1,970,61603
1,971,61637
1,972,61601
1,973,61603
1,974,61619
1,975,61592
1,976,61626
1,977,61588
1,978,61630
1,979,61580
1,980,61560
1,981,61631
1,982,61573
1,983,61576
1,984,61618
1,985,61589
1,986,61629
1,987,61566
1,988,61622
1,989,61582
1,990,61618
1,991,61636
1,992,61604
1,993,61626
1,994,61612
1,995,61590
1,996,61614
1,997,61578
1,998,61636
1,999,61579
1,1000,61588
1,1001,61640
1,1002,61602
1,1003,61633
1,1004,61592
1,1005,61608
1,1006,61603
1,1007,61584
1,1008,61698
1,1009,61613
1,1010,61651
1,1011,61645
1,1012,61607
1,1013,61652
1,1014,61644
1,1015,61646
1,1016,61590
1,1017,61644
1,1018,61628
1,1019,61615
1,1020,61623
1,1021,61631
1,1022,61607
1,1023,61660
1,1024,61580
1,1025,61610
1,1026,61621
1,1027,61605
1,1028,61653
1,1029,61653
1,1030,61624
1,1031,61603
1,1032,61608
1,1033,61603
1,1034,61605
1,1035,61629
1,1036,61602
1,1037,61601
1,1038,61629
1,1039,61608
1,1040,61634
1,1041,61634
1,1042,61619
1,1043,61649
1,1044,61647
1,1045,61584
1,1046,61640
1,1047,61634
1,1048,61656
1,1049,61638
1,1050,61641
1,1051,61625
1,1052,61621
1,1053,61587
1,1054,61635
1,1055,61645
1,1056,61619
1,1057,61624
1,1058,61606
1,1059,61640
1,1060,61626
1,1061,61625
1,1062,61645
1,1063,61612
1,1064,61617
1,1065,61637
1,1066,61588
1,1067,61635
1,1068,61626
1,1069,61640
1,1070,61612
1,1071,61646
1,1072,61629
1,1073,61640
1,1074,61655
1,1075,61629
1,1076,61623
1,1077,61605
1,1078,61589
1,1079,61604
1,1080,61592
1,1081,61656
1,1082,61621
1,1083,61606
1,1084,61620
1,1085,61608
1,1086,61624
1,1087,61674
1,1088,61586
1,1089,61617
1,1090,61589
1,1091,61619
1,1092,61623
1,1093,61593
1,1094,61622
1,1095,61634
1,1096,61606
1,1097,61594
1,1098,61560
1,1099,61657
1,1100,61635
1,1101,61596
1,1102,61617
1,1103,61616
1,1104,61647
1,1105,61635
1,1106,61630
1,1107,61648
1,1108,61596
1,1109,61642
1,1110,61589
1,1111,61649
1,1112,61630
1,1113,61643
1,1114,61622
1,1115,61618
1,1116,61627
1,1117,61582
1,1118,61648
1,1119,61626
1,1120,61609
1,1121,61672
1,1122,61647
1,1123,61666
1,1124,61668
1,1125,61573
1,1126,61591
1,1127,61652
1,1128,61646
1,1129,61602
1,1130,61646
1,1131,61655
1,1132,61623
1,1133,61649
1,1134,61616
1,1135,61685
1,1136,61665
1,1137,61622
1,1138,61643
1,1139,61647
1,1140,61653
1,1141,61633
1,1142,61615
1,1143,61660
1,1144,61621
1,1145,61689
1,1146,61682
1,1147,61650
1,1148,61675
1,1149,61644
1,1150,61667
1,1151,61605
1,1152,61638
1,1153,61661
1,1154,61615
1,1155,61632
1,1156,61640
1,1157,61639
1,1158,61659
1,1159,61612
1,1160,61634
1,1161,61593
1,1162,61610
1,1163,61620
1,1164,61636
1,1165,61674
1,1166,61601
1,1167,61659
1,1168,61631
1,1169,61612
1,1170,61680
1,1171,61654
1,1172,61677
1,1173,61620
1,1174,61608
1,1175,61675
1,1176,61634
1,1177,61622
1,1178,61624
1,1179,61627
1,1180,61624
1,1181,61657
1,1182,61663
1,1183,61630
1,1184,61654
1,1185,61648
1,1186,61596
1,1187,61639
1,1188,61639
1,1189,61617
1,1190,61663
1,1191,61620
1,1192,61649
1,1193,61645
1,1194,61615
1,1195,61622
1,1196,61589
1,1197,61687
1,1198,61635
1,1199,61676
1,1200,61617
1,1201,61625
1,1202,61678
1,1203,61593
1,1204,61613
1,1205,61644
1,1206,61627
1,1207,61659
1,1208,61648
1,1209,61630
1,1210,61617
1,1211,61640
1,1212,61625
1,1213,61623
1,1214,61636
1,1215,61633
1,1216,61614
1,1217,61643
1,1218,61621
1,1219,61657
1,1220,61620
1,1221,61632
1,1222,61618
1,1223,61642
1,1224,61672
1,1225,61643
1,1226,61610
1,1227,61626
1,1228,61628
1,1229,61647
1,1230,61649
1,1231,61692
1,1232,61712
1,1233,61667
1,1234,61625
1,1235,61610
1,1236,61662
1,1237,61653
1,1238,61710
1,1239,61702
1,1240,61681
1,1241,61686
1,1242,61688
1,1243,61658
1,1244,61667
1,1245,61651
1,1246,61668
1,1247,61680
1,1248,61677
1,1249,61689
1,1250,61682
1,1251,61694
1,1252,61702
1,1253,61746
1,1254,61698
1,1255,61667
1,1256,61703
1,1257,61688
1,1258,61737
1,1259,61707
1,1260,61679
1,1261,61687
1,1262,61687
1,1263,61713
1,1264,61667
1,1265,61691
1,1266,61764
1,1267,61658
1,1268,61731
1,1269,61673
1,1270,61731
1,1271,61721
1,1272,61685
1,1273,61714
1,1274,61703
1,1275,61725
1,1276,61704
1,1277,61727
1,1278,61715
1,1279,61653
1,1280,61741
1,1281,61728
1,1282,61722
1,1283,61713
1,1284,61712
1,1285,61743
1,1286,61668
1,1287,61715
1,1288,61713
1,1289,61734
1,1290,61726
1,1291,61708
1,1292,61715
1,1293,61724
1,1294,61715
1,1295,61704
1,1296,61671
1,1297,61704
1,1298,61760
1,1299,61690
1,1300,61720
1,1301,61706
1,1302,61718
1,1303,61718
1,1304,61713
1,1305,61738
1,1306,61716
1,1307,61729
1,1308,61732
1,1309,61692
1,1310,61755
1,1311,61701
1,1312,61708
1,1313,61694
1,1314,61719
1,1315,61721
1,1316,61703
1,1317,61738
1,1318,61637
1,1319,61750
1,1320,61729
1,1321,61726
1,1322,61705
1,1323,61704
1,1324,61711
1,1325,61720
1,1326,61689
1,1327,61680
1,1328,61671
1,1329,61705
1,1330,61662
1,1331,61685
1,1332,61706
1,1333,61649
1,1334,61631
1,1335,61608
1,1336,61575
1,1337,61596
1,1338,61567
1,1339,61271
1,1340,70020
