1,1,61641
1,2,61604
1,3,61629
1,4,61608
1,5,61647
1,6,61618
1,7,61628
1,8,61650
1,9,61644
1,10,61637
1,11,61632
1,12,61577
1,13,61679
1,14,61632
1,15,61649
1,16,61647
1,17,61644
1,18,61655
1,19,61620
1,20,61662
1,21,61666
1,22,61622
1,23,61625
1,24,61578
1,25,61597
1,26,61639
1,27,61640
1,28,61642
1,29,61607
1,30,61662
1,31,61635
1,32,61613
1,33,61635
1,34,61610
1,35,61660
1,36,61619
1,37,61612
1,38,61638
1,39,61628
1,40,61647
1,41,61609
1,42,61648
1,43,61616
1,44,61621
1,45,61658
1,46,61634
1,47,61609
1,48,61610
1,49,61664
1,50,61587
1,51,61603
1,52,61662
1,53,61668
1,54,61614
1,55,61593
1,56,61639
1,57,61662
1,58,61614
1,59,61631
1,60,61647
1,61,61644
1,62,61644
1,63,61615
1,64,61629
1,65,61619
1,66,61652
1,67,61612
1,68,61593
1,69,61605
1,70,61626
1,71,61645
1,72,61617
1,73,61617
1,74,61646
1,75,61651
1,76,61616
1,77,61646
1,78,61634
1,79,61626
1,80,61679
1,81,61615
1,82,61625
1,83,61647
1,84,61633
1,85,61639
1,86,61625
1,87,61609
1,88,61602
1,89,61642
1,90,61628
1,91,61618
1,92,61648
1,93,61610
1,94,61644
1,95,61634
1,96,61648
1,97,61615
1,98,61629
1,99,61580
1,100,61627
1,101,61613
1,102,61658
1,103,61666
1,104,61610
1,105,61620
1,106,61630
1,107,61629
1,108,61603
1,109,61591
1,110,61643
1,111,61614
1,112,61610
1,113,61650
1,114,61645
1,115,61633
1,116,61647
1,117,61635
1,118,61627
1,119,61640
1,120,61656
1,121,61650
1,122,61655
1,123,61651
1,124,61599
1,125,61623
1,126,61595
1,127,61613
1,128,61615
1,129,61617
1,130,61632
1,131,61627
1,132,61661
1,133,61605
1,134,61630
1,135,61615
1,136,61618
1,137,61628
1,138,61638
1,139,61636
1,140,61615
1,141,61613
1,142,61640
1,143,61639
1,144,61619
1,145,61664
1,146,61622
1,147,61621
1,148,61635
1,149,61616
1,150,61625
1,151,61619
1,152,61663
1,153,61636
1,154,61655
1,155,61664
1,156,61597
1,157,61656
1,158,61605
1,159,61581
1,160,61633
1,161,61645
1,162,61593
1,163,61639
1,164,61626
1,165,61603
1,166,61649
1,167,61614
1,168,61648
1,169,61630
1,170,61678
1,171,61622
1,172,61640
1,173,61662
1,174,61623
1,175,61609
1,176,61650
1,177,61642
1,178,61641
1,179,61631
1,180,61605
1,181,61612
1,182,61610
1,183,61615
1,184,61627
1,185,61661
1,186,61602
1,187,61610
1,188,61598
1,189,61618
1,190,61607
1,191,61668
1,192,61618
1,193,61642
1,194,61659
1,195,61626
1,196,61628
1,197,61621
1,198,61634
1,199,61615
1,200,61617
1,201,61607
1,202,61602
1,203,61638
1,204,61624
1,205,61628
1,206,61659
1,207,61629
1,208,61644
1,209,61634
1,210,61618
1,211,61598
1,212,61607
1,213,61605
1,214,61623
1,215,61609
1,216,61627
1,217,61613
1,218,61635
1,219,61634
1,220,61611
1,221,61645
1,222,61632
1,223,61673
1,224,61663
1,225,61622
1,226,61631
1,227,61600
1,228,61631
1,229,61634
1,230,61625
1,231,61611
1,232,61639
1,233,61605
1,234,61626
1,235,61650
1,236,61649
1,237,61647
1,238,61614
1,239,61672
1,240,61651
1,241,61589
1,242,61665
1,243,61644
1,244,61635
1,245,61651
1,246,61631
1,247,61625
1,248,61627
1,249,61612
1,250,61648
1,251,61639
1,252,61637
1,253,61637
1,254,61617
1,255,61627
1,256,61638
1,257,61630
1,258,61615
1,259,61639
1,260,61640
1,261,61649
1,262,61630
1,263,61681
1,264,61635
1,265,61616
1,266,61624
1,267,61642
1,268,61620
1,269,61573
1,270,61628
1,271,61682
1,272,61638
1,273,61623
1,274,61624
1,275,61636
1,276,61623
1,277,61631
1,278,61614
1,279,61633
1,280,61628
1,281,61620
1,282,61597
1,283,61621
1,284,61617
1,285,61605
1,286,61664
1,287,61641
1,288,61624
1,289,61671
1,290,61646
1,291,61652
1,292,61608
1,293,61624
1,294,61657
1,295,61617
1,296,61614
1,297,61665
1,298,61663
1,299,61615
1,300,61673
1,301,61631
1,302,61623
1,303,61656
1,304,61625
1,305,61630
1,306,61685
1,307,61600
1,308,61610
1,309,61637
1,310,61638
1,311,61652
1,312,61615
1,313,61653
1,314,61602
1,315,61642
1,316,61620
1,317,61645
1,318,61603
1,319,61617
1,320,61616
1,321,61610
1,322,61596
1,323,61627
1,324,61636
1,325,61600
1,326,61667
1,327,61630
1,328,61641
1,329,61614
1,330,61653
1,331,61629
1,332,61634
1,333,61584
1,334,61607
1,335,61604
1,336,61643
1,337,61637
1,338,61617
1,339,61594
1,340,61656
1,341,61649
1,342,61656
1,343,61605
1,344,61633
1,345,61646
1,346,61642
1,347,61624
1,348,61648
1,349,61631
1,350,61613
1,351,61605
1,352,61651
1,353,61656
1,354,61642
1,355,61662
1,356,61619
1,357,61617
1,358,61614
1,359,61647
1,360,61635
1,361,61630
1,362,61615
1,363,61639
1,364,61671
1,365,61608
1,366,61604
1,367,61621
1,368,61636
1,369,61637
1,370,61636
1,371,61647
1,372,61651
1,373,61643
1,374,61630
1,375,61639
1,376,61658
1,377,61638
1,378,61606
1,379,61614
1,380,61563
1,381,61551
1,382,61567
1,383,61629
1,384,61599
1,385,61590
1,386,61617
1,387,61633
1,388,61628
1,389,61650
1,390,61634
1,391,61661
1,392,61618
1,393,61668
1,394,61636
1,395,61678
1,396,61633
1,397,61643
1,398,61659
1,399,61626
1,400,61609
1,401,61629
1,402,61630
1,403,61619
1,404,61645
1,405,61640
1,406,61588
1,407,61641
1,408,61646
1,409,61608
1,410,61581
1,411,61657
1,412,61649
1,413,61636
1,414,61617
1,415,61646
1,416,61630
1,417,61684
1,418,61620
1,419,61629
1,420,61645
1,421,61652
1,422,61659
1,423,61660
1,424,61631
1,425,61598
1,426,61616
1,427,61637
1,428,61643
1,429,61628
1,430,61605
1,431,61600
1,432,61666
1,433,61612
1,434,61616
1,435,61633
1,436,61615
1,437,61624
1,438,61659
1,439,61638
1,440,61605
1,441,61590
1,442,61629
1,443,61644
1,444,61647
1,445,61648
1,446,61659
1,447,61649
1,448,61634
1,449,61643
1,450,61642
1,451,61627
1,452,61624
1,453,61612
1,454,61607
1,455,61657
1,456,61629
1,457,61659
1,458,61628
1,459,61593
1,460,61638
1,461,61606
1,462,61603
1,463,61628
1,464,61637
1,465,61641
1,466,61640
1,467,61620
1,468,61644
1,469,61633
1,470,61613
1,471,61665
1,472,61612
1,473,61629
1,474,61633
1,475,61621
1,476,61635
1,477,61613
1,478,61659
1,479,61644
1,480,61619
1,481,61611
1,482,61578
1,483,61618
1,484,61623
1,485,61607
1,486,61653
1,487,61614
1,488,61598
1,489,61612
1,490,61649
1,491,61629
1,492,61605
1,493,61659
1,494,61616
1,495,61644
1,496,61591
1,497,61676
1,498,61651
1,499,61599
1,500,61694
1,501,61635
1,502,61643
1,503,61630
1,504,61652
1,505,61632
1,506,61610
1,507,61646
1,508,61626
1,509,61615
1,510,61629
1,511,61634
1,512,61635
1,513,61621
1,514,61627
1,515,61647
1,516,61628
1,517,61613
1,518,61638
1,519,61623
1,520,61649
1,521,61603
1,522,61601
1,523,61639
1,524,61638
1,525,61649
1,526,61645
1,527,61660
1,528,61654
1,529,61662
1,530,61641
1,531,61656
1,532,61625
1,533,61592
1,534,61635
1,535,61633
1,536,61677
1,537,61652
1,538,61640
1,539,61685
1,540,61645
1,541,61578
1,542,61607
1,543,61626
1,544,61676
1,545,61633
1,546,61628
1,547,61628
1,548,61634
1,549,61633
1,550,61616
1,551,61621
1,552,61612
1,553,61675
1,554,61613
1,555,61677
1,556,61668
1,557,61634
1,558,61621
1,559,61630
1,560,61649
1,561,61663
1,562,61631
1,563,61625
1,564,61596
1,565,61608
1,566,61654
1,567,61680
1,568,61658
1,569,61616
1,570,61591
1,571,61615
1,572,61655
1,573,61667
1,574,61643
1,575,61616
1,576,61597
1,577,61635
1,578,61597
1,579,61622
1,580,61608
1,581,61658
1,582,61631
1,583,61634
1,584,61638
1,585,61621
1,586,61607
1,587,61634
1,588,61598
1,589,61600
1,590,61631
1,591,61686
1,592,61629
1,593,61621
1,594,61628
1,595,61635
1,596,61663
1,597,61640
1,598,61642
1,599,61649
1,600,61631
1,601,61637
1,602,61619
1,603,61638
1,604,61637
1,605,61638
1,606,61639
1,607,61631
1,608,61644
1,609,61612
1,610,61606
1,611,61614
1,612,61618
1,613,61647
1,614,61615
1,615,61624
1,616,61652
1,617,61678
1,618,61685
1,619,61640
1,620,61594
1,621,61582
1,622,61612
1,623,61645
1,624,61656
1,625,61618
1,626,61663
1,627,61638
1,628,61604
1,629,61594
1,630,61631
1,631,61635
1,632,61659
1,633,61622
1,634,61643
1,635,61623
1,636,61601
1,637,61647
1,638,61640
1,639,61631
1,640,61612
1,641,61653
1,642,61623
1,643,61628
1,644,61611
1,645,61655
1,646,61608
1,647,61614
1,648,61631
1,649,61668
1,650,61642
1,651,61610
1,652,61621
1,653,61638
1,654,61628
1,655,61629
1,656,61656
1,657,61605
1,658,61613
1,659,61615
1,660,61588
1,661,61628
1,662,61618
1,663,61585
1,664,61630
1,665,61631
1,666,61627
1,667,61653
1,668,61626
1,669,61620
1,670,61650
1,671,61611
1,672,61657
1,673,61663
1,674,61648
1,675,61590
1,676,61604
1,677,61671
1,678,61638
1,679,61612
1,680,61620
1,681,61646
1,682,61642
1,683,61655
1,684,61577
1,685,61632
1,686,61630
1,687,61670
1,688,61639
1,689,61605
1,690,61639
1,691,61624
1,692,61637
1,693,61641
1,694,61607
1,695,61612
1,696,61642
1,697,61634
1,698,61585
1,699,61614
1,700,61626
1,701,61622
1,702,61627
1,703,61634
1,704,61633
1,705,61671
1,706,61653
1,707,61651
1,708,61615
1,709,61634
1,710,61639
1,711,61608
1,712,61623
1,713,61624
1,714,61614
1,715,61627
1,716,61681
1,717,61637
1,718,61616
1,719,61622
1,720,61647
1,721,61635
1,722,61613
1,723,61648
1,724,61646
1,725,61605
1,726,61614
1,727,61614
1,728,61622
1,729,61653
1,730,61613
1,731,61634
1,732,61616
1,733,61633
1,734,61638
1,735,61640
1,736,61615
1,737,61618
1,738,61632
1,739,61626
1,740,61659
1,741,61673
1,742,61627
1,743,61593
1,744,61656
1,745,61645
1,746,61655
1,747,61610
1,748,61647
1,749,61654
1,750,61646
1,751,61652
1,752,61636
1,753,61637
1,754,61623
1,755,61582
1,756,61660
1,757,61644
1,758,61648
1,759,61638
1,760,61634
1,761,61615
1,762,61630
1,763,61657
1,764,61611
1,765,61625
1,766,61639
1,767,61636
1,768,61640
1,769,61648
1,770,61633
1,771,61652
1,772,61665
1,773,61633
1,774,61642
1,775,61676
1,776,61650
1,777,61618
1,778,61622
1,779,61652
1,780,61649
1,781,61625
1,782,61637
1,783,61654
1,784,61636
1,785,61641
1,786,61654
1,787,61657
1,788,61584
1,789,61644
1,790,61621
1,791,61604
1,792,61649
1,793,61713
1,794,61626
1,795,61631
1,796,61632
1,797,61649
1,798,61644
1,799,61640
1,800,61600
1,801,61604
1,802,61613
1,803,61659
1,804,61667
1,805,61639
1,806,61645
1,807,61656
1,808,61674
1,809,61665
1,810,61603
1,811,61612
1,812,61647
1,813,61660
1,814,61610
1,815,61639
1,816,61618
1,817,61612
1,818,61605
1,819,61647
1,820,61615
1,821,61640
1,822,61600
1,823,61652
1,824,61637
1,825,61641
1,826,61653
1,827,61620
1,828,61627
1,829,61659
1,830,61625
1,831,61659
1,832,61637
1,833,61648
1,834,61601
1,835,61610
1,836,61662
1,837,61615
1,838,61644
1,839,61616
1,840,61643
1,841,61645
1,842,61633
1,843,61625
1,844,61644
1,845,61612
1,846,61604
1,847,61653
1,848,61589
1,849,61605
1,850,61597
1,851,61646
1,852,61627
1,853,61610
1,854,61639
1,855,61640
1,856,61635
1,857,61627
1,858,61649
1,859,61605
1,860,61607
1,861,61622
1,862,61624
1,863,61638
1,864,61639
1,865,61647
1,866,61647
1,867,61625
1,868,61656
1,869,61660
1,870,61604
1,871,61590
1,872,61669
1,873,61631
1,874,61665
1,875,61630
1,876,61643
1,877,61679
1,878,61614
1,879,61622
1,880,61667
1,881,61625
1,882,61609
1,883,61634
1,884,61647
1,885,61680
1,886,61627
1,887,61612
1,888,61641
1,889,61636
1,890,61598
1,891,61637
1,892,61682
1,893,61632
1,894,61569
1,895,61650
1,896,61623
1,897,61625
1,898,61667
1,899,61650
1,900,61628
1,901,61600
1,902,61595
1,903,61644
1,904,61643
1,905,61644
1,906,61654
1,907,61642
1,908,61634
1,909,61627
1,910,61604
1,911,61633
1,912,61608
1,913,61603
1,914,61640
1,915,61644
1,916,61618
1,917,61665
1,918,61646
1,919,61629
1,920,61628
1,921,61606
1,922,61635
1,923,61638
1,924,61628
1,925,61661
1,926,61647
1,927,61636
1,928,61620
1,929,61622
1,930,61639
1,931,61600
1,932,61665
1,933,61629
1,934,61634
1,935,61647
1,936,61614
1,937,61626
1,938,61647
1,939,61668
1,940,61641
1,941,61632
1,942,61641
1,943,61595
1,944,61607
1,945,61663
1,946,61649
1,947,61649
1,948,61597
1,949,61644
1,950,61638
1,951,61645
1,952,61638
1,953,61628
1,954,61640
1,955,61644
1,956,61653
1,957,61662
1,958,61653
1,959,61621
1,960,61617
1,961,61660
1,962,61659
1,963,61652
1,964,61668
1,965,61628
1,966,61625
1,967,61619
1,968,61608
1,969,61627
1,970,61633
1,971,61604
1,972,61645
1,973,61637
1,974,61640
1,975,61623
1,976,61635
1,977,61624
1,978,61603
1,979,61637
1,980,61668
1,981,61594
1,982,61642
1,983,61671
1,984,61607
1,985,61624
1,986,61621
1,987,61633
1,988,61656
1,989,61639
1,990,61629
1,991,61657
1,992,61635
1,993,61619
1,994,61654
1,995,61597
1,996,61661
1,997,61618
1,998,61600
1,999,61637
1,1000,61630
1,1001,61653
1,1002,61617
1,1003,61642
1,1004,61614
1,1005,61650
1,1006,61652
1,1007,61630
1,1008,61668
1,1009,61617
1,1010,61651
1,1011,61661
1,1012,61629
1,1013,61648
1,1014,61680
1,1015,61613
1,1016,61629
1,1017,61621
1,1018,61634
1,1019,61633
1,1020,61637
1,1021,61648
1,1022,61632
1,1023,61603
1,1024,61583
1,1025,61606
1,1026,61651
1,1027,61641
1,1028,61609
1,1029,61631
1,1030,61643
1,1031,61663
1,1032,61626
1,1033,61615
1,1034,61678
1,1035,61672
1,1036,61652
1,1037,61621
1,1038,61650
1,1039,61622
1,1040,61659
1,1041,61641
1,1042,61636
1,1043,61659
1,1044,61633
1,1045,61664
1,1046,61618
1,1047,61627
1,1048,61660
1,1049,61640
1,1050,61615
1,1051,61608
1,1052,61623
1,1053,61654
1,1054,61613
1,1055,61635
1,1056,61601
1,1057,61603
1,1058,61641
1,1059,61630
1,1060,61646
1,1061,61622
1,1062,61641
1,1063,61641
1,1064,61639
1,1065,61628
1,1066,61655
1,1067,61646
1,1068,61617
1,1069,61653
1,1070,61702
1,1071,61626
1,1072,61645
1,1073,61634
1,1074,61658
1,1075,61647
1,1076,61649
1,1077,61607
1,1078,61639
1,1079,61666
1,1080,61614
1,1081,61624
1,1082,61628
1,1083,61669
1,1084,61645
1,1085,61662
1,1086,61636
1,1087,61662
1,1088,61647
1,1089,61657
1,1090,61621
1,1091,61634
1,1092,61616
1,1093,61621
1,1094,61640
1,1095,61645
1,1096,61611
1,1097,61640
1,1098,61628
1,1099,61661
1,1100,61639
1,1101,61637
1,1102,61638
1,1103,61650
1,1104,61689
1,1105,61624
1,1106,61648
1,1107,61650
1,1108,61697
1,1109,61633
1,1110,61671
1,1111,61678
1,1112,61639
1,1113,61676
1,1114,61670
1,1115,61676
1,1116,61646
1,1117,61657
1,1118,61633
1,1119,61662
1,1120,61642
1,1121,61668
1,1122,61662
1,1123,61684
1,1124,61619
1,1125,61672
1,1126,61664
1,1127,61649
1,1128,61599
1,1129,61621
1,1130,61651
1,1131,61705
1,1132,61628
1,1133,61651
1,1134,61673
1,1135,61730
1,1136,61646
1,1137,61620
1,1138,61663
1,1139,61646
1,1140,61637
1,1141,61674
1,1142,61659
1,1143,61654
1,1144,61682
1,1145,61660
1,1146,61634
1,1147,61679
1,1148,61670
1,1149,61642
1,1150,61693
1,1151,61694
1,1152,61676
1,1153,61607
1,1154,61647
1,1155,61648
1,1156,61676
1,1157,61678
1,1158,61642
1,1159,61642
1,1160,61672
1,1161,61710
1,1162,61667
1,1163,61650
1,1164,61685
1,1165,61677
1,1166,61625
1,1167,61671
1,1168,61661
1,1169,61614
1,1170,61684
1,1171,61686
1,1172,61655
1,1173,61673
1,1174,61715
1,1175,61640
1,1176,61620
1,1177,61679
1,1178,61654
1,1179,61658
1,1180,61652
1,1181,61656
1,1182,61650
1,1183,61675
1,1184,61633
1,1185,61685
1,1186,61656
1,1187,61680
1,1188,61646
1,1189,61653
1,1190,61676
1,1191,61665
1,1192,61646
1,1193,61624
1,1194,61636
1,1195,61680
1,1196,61652
1,1197,61641
1,1198,61601
1,1199,61644
1,1200,61658
1,1201,61627
1,1202,61682
1,1203,61620
1,1204,61696
1,1205,61681
1,1206,61656
1,1207,61657
1,1208,61633
1,1209,61656
1,1210,61653
1,1211,61689
1,1212,61654
1,1213,61631
1,1214,61681
1,1215,61670
1,1216,61647
1,1217,61657
1,1218,61670
1,1219,61719
1,1220,61662
1,1221,61658
1,1222,61679
1,1223,61676
1,1224,61647
1,1225,61675
1,1226,61639
1,1227,61682
1,1228,61664
1,1229,61681
1,1230,61701
1,1231,61653
1,1232,61669
1,1233,61669
1,1234,61689
1,1235,61668
1,1236,61713
1,1237,61706
1,1238,61732
1,1239,61671
1,1240,61656
1,1241,61738
1,1242,61727
1,1243,61729
1,1244,61709
1,1245,61701
1,1246,61712
1,1247,61693
1,1248,61699
1,1249,61716
1,1250,61717
1,1251,61725
1,1252,61705
1,1253,61705
1,1254,61724
1,1255,61739
1,1256,61721
1,1257,61691
1,1258,61734
1,1259,61706
1,1260,61721
1,1261,61725
1,1262,61693
1,1263,61698
1,1264,61754
1,1265,61760
1,1266,61721
1,1267,61698
1,1268,61707
1,1269,61729
1,1270,61731
1,1271,61737
1,1272,61700
1,1273,61756
1,1274,61738
1,1275,61699
1,1276,61735
1,1277,61746
1,1278,61729
1,1279,61757
1,1280,61750
1,1281,61758
1,1282,61724
1,1283,61720
1,1284,61727
1,1285,61744
1,1286,61740
1,1287,61779
1,1288,61721
1,1289,61717
1,1290,61727
1,1291,61752
1,1292,61748
1,1293,61755
1,1294,61745
1,1295,61725
1,1296,61725
1,1297,61714
1,1298,61732
1,1299,61704
1,1300,61730
1,1301,61757
1,1302,61735
1,1303,61760
1,1304,61735
1,1305,61715
1,1306,61706
1,1307,61770
1,1308,61718
1,1309,61722
1,1310,61728
1,1311,61704
1,1312,61723
1,1313,61730
1,1314,61763
1,1315,61758
1,1316,61752
1,1317,61724
1,1318,61731
1,1319,61748
1,1320,61754
1,1321,61780
1,1322,61749
1,1323,61786
1,1324,61768
1,1325,61724
1,1326,61745
1,1327,61726
1,1328,61735
1,1329,61697
1,1330,61717
1,1331,61719
1,1332,61711
1,1333,61688
1,1334,61670
1,1335,61663
1,1336,61624
1,1337,61616
1,1338,61608
1,1339,61317
1,1340,70113
