1,1,61667
1,2,61659
1,3,61605
1,4,61658
1,5,61659
1,6,61625
1,7,61688
1,8,61662
1,9,61645
1,10,61660
1,11,61635
1,12,61633
1,13,61640
1,14,61675
1,15,61646
1,16,61703
1,17,61623
1,18,61629
1,19,61614
1,20,61627
1,21,61646
1,22,61627
1,23,61652
1,24,61646
1,25,61643
1,26,61667
1,27,61616
1,28,61649
1,29,61649
1,30,61670
1,31,61654
1,32,61663
1,33,61619
1,34,61654
1,35,61638
1,36,61642
1,37,61649
1,38,61646
1,39,61637
1,40,61626
1,41,61630
1,42,61675
1,43,61663
1,44,61652
1,45,61638
1,46,61664
1,47,61664
1,48,61701
1,49,61653
1,50,61654
1,51,61651
1,52,61645
1,53,61668
1,54,61631
1,55,61648
1,56,61660
1,57,61660
1,58,61652
1,59,61651
1,60,61635
1,61,61652
1,62,61623
1,63,61637
1,64,61669
1,65,61650
1,66,61647
1,67,61659
1,68,61665
1,69,61641
1,70,61668
1,71,61685
1,72,61657
1,73,61671
1,74,61674
1,75,61639
1,76,61634
1,77,61674
1,78,61673
1,79,61664
1,80,61688
1,81,61654
1,82,61623
1,83,61694
1,84,61668
1,85,61634
1,86,61640
1,87,61594
1,88,61654
1,89,61650
1,90,61626
1,91,61665
1,92,61634
1,93,61652
1,94,61650
1,95,61660
1,96,61643
1,97,61635
1,98,61642
1,99,61650
1,100,61663
1,101,61618
1,102,61620
1,103,61645
1,104,61609
1,105,61643
1,106,61657
1,107,61648
1,108,61615
1,109,61660
1,110,61654
1,111,61648
1,112,61659
1,113,61638
1,114,61675
1,115,61620
1,116,61638
1,117,61654
1,118,61639
1,119,61633
1,120,61645
1,121,61676
1,122,61634
1,123,61671
1,124,61654
1,125,61652
1,126,61662
1,127,61677
1,128,61665
1,129,61625
1,130,61622
1,131,61632
1,132,61684
1,133,61613
1,134,61667
1,135,61673
1,136,61646
1,137,61660
1,138,61666
1,139,61675
1,140,61700
1,141,61642
1,142,61648
1,143,61695
1,144,61661
1,145,61649
1,146,61653
1,147,61656
1,148,61660
1,149,61699
1,150,61658
1,151,61652
1,152,61647
1,153,61653
1,154,61627
1,155,61659
1,156,61688
1,157,61621
1,158,61639
1,159,61656
1,160,61640
1,161,61650
1,162,61631
1,163,61611
1,164,61659
1,165,61622
1,166,61654
1,167,61665
1,168,61614
1,169,61601
1,170,61626
1,171,61635
1,172,61629
1,173,61614
1,174,61636
1,175,61667
1,176,61648
1,177,61650
1,178,61666
1,179,61665
1,180,61633
1,181,61653
1,182,61637
1,183,61627
1,184,61643
1,185,61639
1,186,61663
1,187,61646
1,188,61658
1,189,61637
1,190,61664
1,191,61676
1,192,61618
1,193,61614
1,194,61608
1,195,61640
1,196,61611
1,197,61621
1,198,61671
1,199,61686
1,200,61622
1,201,61660
1,202,61652
1,203,61662
1,204,61664
1,205,61645
1,206,61660
1,207,61631
1,208,61655
1,209,61638
1,210,61662
1,211,61604
1,212,61668
1,213,61640
1,214,61636
1,215,61685
1,216,61651
1,217,61641
1,218,61667
1,219,61637
1,220,61619
1,221,61672
1,222,61610
1,223,61678
1,224,61625
1,225,61619
1,226,61648
1,227,61662
1,228,61669
1,229,61649
1,230,61612
1,231,61622
1,232,61653
1,233,61668
1,234,61621
1,235,61665
1,236,61651
1,237,61646
1,238,61651
1,239,61632
1,240,61688
1,241,61628
1,242,61647
1,243,61656
1,244,61625
1,245,61651
1,246,61670
1,247,61657
1,248,61656
1,249,61672
1,250,61635
1,251,61635
1,252,61678
1,253,61650
1,254,61657
1,255,61660
1,256,61632
1,257,61670
1,258,61709
1,259,61638
1,260,61623
1,261,61676
1,262,61623
1,263,61658
1,264,61645
1,265,61633
1,266,61633
1,267,61671
1,268,61663
1,269,61674
1,270,61683
1,271,61641
1,272,61686
1,273,61605
1,274,61632
1,275,61613
1,276,61651
1,277,61657
1,278,61661
1,279,61663
1,280,61651
1,281,61664
1,282,61645
1,283,61644
1,284,61680
1,285,61649
1,286,61672
1,287,61638
1,288,61674
1,289,61681
1,290,61629
1,291,61666
1,292,61642
1,293,61657
1,294,61705
1,295,61683
1,296,61645
1,297,61634
1,298,61638
1,299,61635
1,300,61627
1,301,61624
1,302,61665
1,303,61648
1,304,61605
1,305,61631
1,306,61636
1,307,61644
1,308,61629
1,309,61631
1,310,61638
1,311,61663
1,312,61639
1,313,61596
1,314,61630
1,315,61680
1,316,61645
1,317,61672
1,318,61674
1,319,61636
1,320,61662
1,321,61644
1,322,61629
1,323,61651
1,324,61625
1,325,61640
1,326,61612
1,327,61629
1,328,61620
1,329,61644
1,330,61657
1,331,61654
1,332,61644
1,333,61628
1,334,61675
1,335,61589
1,336,61637
1,337,61640
1,338,61668
1,339,61625
1,340,61606
1,341,61622
1,342,61644
1,343,61639
1,344,61631
1,345,61628
1,346,61613
1,347,61668
1,348,61639
1,349,61634
1,350,61621
1,351,61634
1,352,61642
1,353,61620
1,354,61625
1,355,61680
1,356,61654
1,357,61675
1,358,61653
1,359,61629
1,360,61657
1,361,61637
1,362,61656
1,363,61681
1,364,61627
1,365,61626
1,366,61676
1,367,61673
1,368,61678
1,369,61652
1,370,61629
1,371,61658
1,372,61619
1,373,61626
1,374,61612
1,375,61653
1,376,61654
1,377,61651
1,378,61666
1,379,61628
1,380,61678
1,381,61677
1,382,61620
1,383,61635
1,384,61677
1,385,61634
1,386,61645
1,387,61633
1,388,61621
1,389,61660
1,390,61704
1,391,61649
1,392,61670
1,393,61692
1,394,61638
1,395,61661
1,396,61624
1,397,61617
1,398,61639
1,399,61673
1,400,61666
1,401,61649
1,402,61649
1,403,61648
1,404,61639
1,405,61613
1,406,61650
1,407,61693
1,408,61672
1,409,61645
1,410,61619
1,411,61643
1,412,61647
1,413,61642
1,414,61655
1,415,61648
1,416,61630
1,417,61657
1,418,61659
1,419,61681
1,420,61637
1,421,61670
1,422,61609
1,423,61683
1,424,61626
1,425,61617
1,426,61658
1,427,61653
1,428,61657
1,429,61652
1,430,61642
1,431,61635
1,432,61649
1,433,61625
1,434,61627
1,435,61664
1,436,61641
1,437,61631
1,438,61670
1,439,61656
1,440,61673
1,441,61683
1,442,61625
1,443,61651
1,444,61626
1,445,61664
1,446,61626
1,447,61652
1,448,61634
1,449,61639
1,450,61647
1,451,61625
1,452,61637
1,453,61666
1,454,61655
1,455,61653
1,456,61603
1,457,61600
1,458,61650
1,459,61651
1,460,61641
1,461,61622
1,462,61639
1,463,61643
1,464,61674
1,465,61688
1,466,61648
1,467,61649
1,468,61658
1,469,61624
1,470,61665
1,471,61616
1,472,61663
1,473,61645
1,474,61630
1,475,61630
1,476,61607
1,477,61664
1,478,61631
1,479,61649
1,480,61668
1,481,61628
1,482,61615
1,483,61649
1,484,61651
1,485,61630
1,486,61630
1,487,61633
1,488,61694
1,489,61648
1,490,61627
1,491,61653
1,492,61663
1,493,61659
1,494,61689
1,495,61634
1,496,61678
1,497,61672
1,498,61642
1,499,61649
1,500,61667
1,501,61644
1,502,61643
1,503,61636
1,504,61671
1,505,61691
1,506,61656
1,507,61682
1,508,61643
1,509,61667
1,510,61671
1,511,61649
1,512,61656
1,513,61647
1,514,61649
1,515,61654
1,516,61645
1,517,61662
1,518,61653
1,519,61637
1,520,61662
1,521,61656
1,522,61642
1,523,61663
1,524,61677
1,525,61643
1,526,61635
1,527,61653
1,528,61612
1,529,61647
1,530,61619
1,531,61668
1,532,61637
1,533,61628
1,534,61654
1,535,61638
1,536,61664
1,537,61687
1,538,61671
1,539,61639
1,540,61638
1,541,61669
1,542,61645
1,543,61640
1,544,61655
1,545,61638
1,546,61684
1,547,61576
1,548,61664
1,549,61689
1,550,61677
1,551,61668
1,552,61662
1,553,61646
1,554,61643
1,555,61657
1,556,61639
1,557,61644
1,558,61659
1,559,61670
1,560,61657
1,561,61652
1,562,61659
1,563,61674
1,564,61638
1,565,61664
1,566,61636
1,567,61635
1,568,61660
1,569,61651
1,570,61662
1,571,61616
1,572,61614
1,573,61658
1,574,61715
1,575,61660
1,576,61626
1,577,61692
1,578,61646
1,579,61668
1,580,61646
1,581,61646
1,582,61641
1,583,61629
1,584,61616
1,585,61654
1,586,61661
1,587,61665
1,588,61632
1,589,61642
1,590,61626
1,591,61654
1,592,61669
1,593,61678
1,594,61666
1,595,61627
1,596,61652
1,597,61635
1,598,61637
1,599,61651
1,600,61660
1,601,61645
1,602,61620
1,603,61673
1,604,61685
1,605,61645
1,606,61660
1,607,61659
1,608,61647
1,609,61664
1,610,61660
1,611,61657
1,612,61643
1,613,61651
1,614,61643
1,615,61659
1,616,61643
1,617,61625
1,618,61635
1,619,61649
1,620,61609
1,621,61661
1,622,61689
1,623,61605
1,624,61685
1,625,61665
1,626,61669
1,627,61695
1,628,61636
1,629,61654
1,630,61683
1,631,61641
1,632,61632
1,633,61660
1,634,61645
1,635,61652
1,636,61616
1,637,61657
1,638,61654
1,639,61613
1,640,61676
1,641,61652
1,642,61649
1,643,61639
1,644,61655
1,645,61640
1,646,61667
1,647,61665
1,648,61659
1,649,61683
1,650,61646
1,651,61640
1,652,61675
1,653,61627
1,654,61659
1,655,61689
1,656,61651
1,657,61675
1,658,61657
1,659,61656
1,660,61666
1,661,61669
1,662,61660
1,663,61653
1,664,61637
1,665,61670
1,666,61653
1,667,61616
1,668,61649
1,669,61716
1,670,61631
1,671,61655
1,672,61666
1,673,61622
1,674,61631
1,675,61629
1,676,61670
1,677,61633
1,678,61636
1,679,61643
1,680,61653
1,681,61678
1,682,61636
1,683,61705
1,684,61618
1,685,61634
1,686,61655
1,687,61633
1,688,61625
1,689,61651
1,690,61650
1,691,61662
1,692,61687
1,693,61700
1,694,61658
1,695,61634
1,696,61638
1,697,61670
1,698,61647
1,699,61608
1,700,61688
1,701,61661
1,702,61634
1,703,61686
1,704,61630
1,705,61663
1,706,61643
1,707,61641
1,708,61654
1,709,61665
1,710,61659
1,711,61662
1,712,61640
1,713,61654
1,714,61638
1,715,61676
1,716,61671
1,717,61655
1,718,61643
1,719,61655
1,720,61654
1,721,61673
1,722,61676
1,723,61654
1,724,61684
1,725,61687
1,726,61632
1,727,61642
1,728,61628
1,729,61650
1,730,61663
1,731,61638
1,732,61638
1,733,61644
1,734,61644
1,735,61707
1,736,61640
1,737,61633
1,738,61649
1,739,61638
1,740,61642
1,741,61618
1,742,61670
1,743,61658
1,744,61626
1,745,61629
1,746,61685
1,747,61655
1,748,61625
1,749,61664
1,750,61676
1,751,61652
1,752,61660
1,753,61647
1,754,61629
1,755,61684
1,756,61654
1,757,61653
1,758,61690
1,759,61665
1,760,61668
1,761,61664
1,762,61664
1,763,61623
1,764,61627
1,765,61667
1,766,61685
1,767,61664
1,768,61650
1,769,61641
1,770,61629
1,771,61646
1,772,61629
1,773,61635
1,774,61646
1,775,61674
1,776,61662
1,777,61660
1,778,61664
1,779,61667
1,780,61646
1,781,61641
1,782,61654
1,783,61669
1,784,61617
1,785,61670
1,786,61647
1,787,61624
1,788,61686
1,789,61668
1,790,61647
1,791,61647
1,792,61666
1,793,61664
1,794,61644
1,795,61648
1,796,61640
1,797,61651
1,798,61671
1,799,61629
1,800,61628
1,801,61663
1,802,61643
1,803,61687
1,804,61616
1,805,61630
1,806,61697
1,807,61645
1,808,61651
1,809,61639
1,810,61660
1,811,61637
1,812,61621
1,813,61613
1,814,61686
1,815,61662
1,816,61652
1,817,61630
1,818,61648
1,819,61653
1,820,61634
1,821,61679
1,822,61651
1,823,61610
1,824,61639
1,825,61634
1,826,61676
1,827,61643
1,828,61665
1,829,61645
1,830,61640
1,831,61617
1,832,61672
1,833,61621
1,834,61646
1,835,61672
1,836,61679
1,837,61695
1,838,61671
1,839,61650
1,840,61639
1,841,61628
1,842,61662
1,843,61694
1,844,61629
1,845,61635
1,846,61650
1,847,61648
1,848,61596
1,849,61651
1,850,61668
1,851,61649
1,852,61690
1,853,61633
1,854,61636
1,855,61602
1,856,61678
1,857,61677
1,858,61659
1,859,61668
1,860,61656
1,861,61643
1,862,61662
1,863,61671
1,864,61636
1,865,61663
1,866,61668
1,867,61631
1,868,61659
1,869,61644
1,870,61658
1,871,61669
1,872,61675
1,873,61629
1,874,61602
1,875,61682
1,876,61652
1,877,61626
1,878,61651
1,879,61641
1,880,61639
1,881,61634
1,882,61614
1,883,61604
1,884,61684
1,885,61670
1,886,61644
1,887,61634
1,888,61624
1,889,61643
1,890,61662
1,891,61640
1,892,61669
1,893,61673
1,894,61636
1,895,61653
1,896,61650
1,897,61673
1,898,61689
1,899,61663
1,900,61646
1,901,61651
1,902,61671
1,903,61661
1,904,61664
1,905,61651
1,906,61685
1,907,61688
1,908,61689
1,909,61668
1,910,61649
1,911,61664
1,912,61654
1,913,61737
1,914,61677
1,915,61637
1,916,61643
1,917,61666
1,918,61650
1,919,61649
1,920,61615
1,921,61680
1,922,61682
1,923,61616
1,924,61632
1,925,61671
1,926,61668
1,927,61653
1,928,61635
1,929,61685
1,930,61630
1,931,61651
1,932,61618
1,933,61636
1,934,61648
1,935,61662
1,936,61677
1,937,61616
1,938,61657
1,939,61647
1,940,61617
1,941,61653
1,942,61636
1,943,61680
1,944,61684
1,945,61659
1,946,61622
1,947,61660
1,948,61642
1,949,61628
1,950,61666
1,951,61674
1,952,61624
1,953,61592
1,954,61686
1,955,61664
1,956,61675
1,957,61632
1,958,61660
1,959,61640
1,960,61685
1,961,61658
1,962,61626
1,963,61668
1,964,61632
1,965,61657
1,966,61657
1,967,61639
1,968,61650
1,969,61662
1,970,61625
1,971,61621
1,972,61648
1,973,61681
1,974,61669
1,975,61646
1,976,61655
1,977,61668
1,978,61650
1,979,61687
1,980,61664
1,981,61657
1,982,61682
1,983,61666
1,984,61623
1,985,61688
1,986,61675
1,987,61637
1,988,61679
1,989,61656
1,990,61657
1,991,61642
1,992,61649
1,993,61663
1,994,61669
1,995,61650
1,996,61618
1,997,61638
1,998,61611
1,999,61636
1,1000,61654
1,1001,61648
1,1002,61651
1,1003,61660
1,1004,61633
1,1005,61650
1,1006,61659
1,1007,61621
1,1008,61629
1,1009,61621
1,1010,61651
1,1011,61660
1,1012,61658
1,1013,61653
1,1014,61687
1,1015,61690
1,1016,61662
1,1017,61668
1,1018,61658
1,1019,61682
1,1020,61685
1,1021,61644
1,1022,61660
1,1023,61691
1,1024,61636
1,1025,61636
1,1026,61655
1,1027,61666
1,1028,61700
1,1029,61670
1,1030,61620
1,1031,61655
1,1032,61647
1,1033,61665
1,1034,61641
1,1035,61664
1,1036,61647
1,1037,61642
1,1038,61648
1,1039,61660
1,1040,61676
1,1041,61676
1,1042,61656
1,1043,61665
1,1044,61651
1,1045,61630
1,1046,61648
1,1047,61620
1,1048,61650
1,1049,61663
1,1050,61653
1,1051,61696
1,1052,61641
1,1053,61670
1,1054,61672
1,1055,61682
1,1056,61667
1,1057,61627
1,1058,61661
1,1059,61648
1,1060,61649
1,1061,61683
1,1062,61661
1,1063,61667
1,1064,61673
1,1065,61667
1,1066,61672
1,1067,61630
1,1068,61649
1,1069,61655
1,1070,61658
1,1071,61661
1,1072,61616
1,1073,61660
1,1074,61609
1,1075,61661
1,1076,61652
1,1077,61641
1,1078,61669
1,1079,61652
1,1080,61671
1,1081,61671
1,1082,61639
1,1083,61657
1,1084,61655
1,1085,61637
1,1086,61663
1,1087,61670
1,1088,61654
1,1089,61697
1,1090,61661
1,1091,61656
1,1092,61644
1,1093,61656
1,1094,61651
1,1095,61613
1,1096,61652
1,1097,61668
1,1098,61678
1,1099,61653
1,1100,61675
1,1101,61667
1,1102,61673
1,1103,61629
1,1104,61637
1,1105,61685
1,1106,61667
1,1107,61658
1,1108,61630
1,1109,61622
1,1110,61678
1,1111,61703
1,1112,61676
1,1113,61670
1,1114,61679
1,1115,61639
1,1116,61688
1,1117,61676
1,1118,61667
1,1119,61665
1,1120,61634
1,1121,61674
1,1122,61687
1,1123,61702
1,1124,61675
1,1125,61672
1,1126,61683
1,1127,61666
1,1128,61669
1,1129,61678
1,1130,61670
1,1131,61663
1,1132,61659
1,1133,61658
1,1134,61645
1,1135,61680
1,1136,61680
1,1137,61667
1,1138,61628
1,1139,61654
1,1140,61697
1,1141,61662
1,1142,61645
1,1143,61694
1,1144,61673
1,1145,61664
1,1146,61668
1,1147,61654
1,1148,61683
1,1149,61660
1,1150,61655
1,1151,61686
1,1152,61694
1,1153,61685
1,1154,61679
1,1155,61654
1,1156,61668
1,1157,61702
1,1158,61718
1,1159,61699
1,1160,61684
1,1161,61674
1,1162,61719
1,1163,61663
1,1164,61719
1,1165,61665
1,1166,61685
1,1167,61689
1,1168,61688
1,1169,61658
1,1170,61717
1,1171,61658
1,1172,61649
1,1173,61679
1,1174,61629
1,1175,61646
1,1176,61665
1,1177,61685
1,1178,61684
1,1179,61668
1,1180,61659
1,1181,61648
1,1182,61669
1,1183,61673
1,1184,61662
1,1185,61652
1,1186,61682
1,1187,61663
1,1188,61684
1,1189,61666
1,1190,61680
1,1191,61696
1,1192,61701
1,1193,61673
1,1194,61691
1,1195,61657
1,1196,61687
1,1197,61654
1,1198,61668
1,1199,61712
1,1200,61667
1,1201,61655
1,1202,61659
1,1203,61660
1,1204,61649
1,1205,61691
1,1206,61677
1,1207,61697
1,1208,61669
1,1209,61688
1,1210,61692
1,1211,61681
1,1212,61698
1,1213,61693
1,1214,61701
1,1215,61676
1,1216,61731
1,1217,61637
1,1218,61666
1,1219,61664
1,1220,61709
1,1221,61716
1,1222,61696
1,1223,61705
1,1224,61697
1,1225,61717
1,1226,61686
1,1227,61716
1,1228,61727
1,1229,61670
1,1230,61733
1,1231,61691
1,1232,61696
1,1233,61680
1,1234,61764
1,1235,61727
1,1236,61708
1,1237,61731
1,1238,61692
1,1239,61704
1,1240,61763
1,1241,61687
1,1242,61659
1,1243,61748
1,1244,61752
1,1245,61739
1,1246,61733
1,1247,61764
1,1248,61708
1,1249,61724
1,1250,61724
1,1251,61737
1,1252,61710
1,1253,61732
1,1254,61723
1,1255,61780
1,1256,61733
1,1257,61766
1,1258,61723
1,1259,61746
1,1260,61765
1,1261,61735
1,1262,61742
1,1263,61718
1,1264,61746
1,1265,61720
1,1266,61760
1,1267,61733
1,1268,61703
1,1269,61740
1,1270,61777
1,1271,61742
1,1272,61752
1,1273,61733
1,1274,61746
1,1275,61764
1,1276,61751
1,1277,61746
1,1278,61722
1,1279,61758
1,1280,61770
1,1281,61777
1,1282,61760
1,1283,61762
1,1284,61722
1,1285,61775
1,1286,61786
1,1287,61751
1,1288,61781
1,1289,61781
1,1290,61710
1,1291,61750
1,1292,61771
1,1293,61744
1,1294,61736
1,1295,61766
1,1296,61721
1,1297,61764
1,1298,61746
1,1299,61810
1,1300,61763
1,1301,61794
1,1302,61789
1,1303,61754
1,1304,61738
1,1305,61767
1,1306,61735
1,1307,61754
1,1308,61765
1,1309,61749
1,1310,61801
1,1311,61746
1,1312,61746
1,1313,61752
1,1314,61763
1,1315,61768
1,1316,61760
1,1317,61787
1,1318,61719
1,1319,61747
1,1320,61768
1,1321,61743
1,1322,61745
1,1323,61797
1,1324,61786
1,1325,61787
1,1326,61746
1,1327,61762
1,1328,61743
1,1329,61764
1,1330,61736
1,1331,61731
1,1332,61717
1,1333,61681
1,1334,61715
1,1335,61681
1,1336,61663
1,1337,61651
1,1338,61608
1,1339,61313
1,1340,70181
