1,1,61945
1,2,61906
1,3,61980
1,4,61929
1,5,61967
1,6,61955
1,7,61956
1,8,61968
1,9,61963
1,10,61917
1,11,61913
1,12,61921
1,13,61944
1,14,61936
1,15,61994
1,16,61953
1,17,61940
1,18,61974
1,19,61947
1,20,61934
1,21,61903
1,22,61909
1,23,61983
1,24,61937
1,25,61926
1,26,61990
1,27,61973
1,28,61971
1,29,61955
1,30,61967
1,31,61993
1,32,61909
1,33,61961
1,34,61912
1,35,61965
1,36,61946
1,37,61988
1,38,61982
1,39,61983
1,40,61888
1,41,61971
1,42,61946
1,43,61956
1,44,62016
1,45,62024
1,46,61952
1,47,61978
1,48,61942
1,49,61961
1,50,61988
1,51,61902
1,52,61957
1,53,61939
1,54,61947
1,55,61958
1,56,61964
1,57,61960
1,58,62013
1,59,61929
1,60,61987
1,61,61961
1,62,61943
1,63,61965
1,64,61960
1,65,61891
1,66,61933
1,67,61943
1,68,61969
1,69,61935
1,70,61963
1,71,61942
1,72,61970
1,73,61994
1,74,62091
1,75,61971
1,76,61971
1,77,61950
1,78,61938
1,79,61962
1,80,61970
1,81,61948
1,82,61957
1,83,61894
1,84,61954
1,85,61919
1,86,61953
1,87,61917
1,88,61951
1,89,62024
1,90,61946
1,91,61909
1,92,61987
1,93,61932
1,94,61893
1,95,61985
1,96,61908
1,97,61902
1,98,61916
1,99,62013
1,100,61922
1,101,61990
1,102,61986
1,103,61926
1,104,61970
1,105,61948
1,106,61967
1,107,61979
1,108,61939
1,109,61937
1,110,61905
1,111,61980
1,112,61940
1,113,61971
1,114,61945
1,115,61913
1,116,61917
1,117,61929
1,118,61927
1,119,61969
1,120,61952
1,121,61920
1,122,61935
1,123,61949
1,124,61889
1,125,61938
1,126,61938
1,127,61983
1,128,61967
1,129,62000
1,130,61954
1,131,61982
1,132,61934
1,133,61918
1,134,62025
1,135,61930
1,136,61963
1,137,61920
1,138,61963
1,139,61954
1,140,61954
1,141,61949
1,142,61957
1,143,61963
1,144,61958
1,145,62012
1,146,61942
1,147,61998
1,148,61956
1,149,61974
1,150,61982
1,151,61940
1,152,61880
1,153,61921
1,154,61979
1,155,61977
1,156,61929
1,157,61927
1,158,61961
1,159,61983
1,160,61946
1,161,61990
1,162,61938
1,163,61928
1,164,61939
1,165,61987
1,166,61947
1,167,61967
1,168,61954
1,169,61913
1,170,61939
1,171,61983
1,172,61971
1,173,61973
1,174,61983
1,175,61935
1,176,61963
1,177,61890
1,178,61956
1,179,61950
1,180,61984
1,181,61898
1,182,61932
1,183,61943
1,184,61933
1,185,61938
1,186,62013
1,187,61950
1,188,61931
1,189,62002
1,190,61947
1,191,62029
1,192,61931
1,193,61973
1,194,61924
1,195,61907
1,196,61907
1,197,61950
1,198,61990
1,199,61973
1,200,61909
1,201,61973
1,202,61942
1,203,61905
1,204,61916
1,205,61931
1,206,61966
1,207,61974
1,208,61988
1,209,61939
1,210,61989
1,211,61930
1,212,61931
1,213,61951
1,214,61907
1,215,61921
1,216,61967
1,217,61924
1,218,61957
1,219,61943
1,220,61971
1,221,61931
1,222,61959
1,223,62003
1,224,61991
1,225,61951
1,226,61944
1,227,61922
1,228,61923
1,229,62030
1,230,61982
1,231,61926
1,232,61965
1,233,61914
1,234,61989
1,235,61936
1,236,61939
1,237,61956
1,238,61941
1,239,61913
1,240,61991
1,241,62027
1,242,61939
1,243,61963
1,244,61946
1,245,61977
1,246,61971
1,247,61951
1,248,61946
1,249,61953
1,250,62006
1,251,61999
1,252,61947
1,253,61916
1,254,61929
1,255,61939
1,256,61970
1,257,61934
1,258,61972
1,259,61940
1,260,61927
1,261,61980
1,262,61918
1,263,61999
1,264,61968
1,265,61959
1,266,61958
1,267,61928
1,268,61953
1,269,62030
1,270,61975
1,271,61920
1,272,61942
1,273,61968
1,274,61989
1,275,61880
1,276,61961
1,277,61947
1,278,61966
1,279,61970
1,280,61964
1,281,61915
1,282,61999
1,283,61980
1,284,62010
1,285,61940
1,286,61968
1,287,61972
1,288,61946
1,289,61996
1,290,61980
1,291,61950
1,292,61996
1,293,61941
1,294,61951
1,295,61949
1,296,61928
1,297,61977
1,298,61971
1,299,61924
1,300,61980
1,301,61960
1,302,61952
1,303,61952
1,304,61969
1,305,62031
1,306,61934
1,307,61955
1,308,61922
1,309,61908
1,310,61970
1,311,61915
1,312,61972
1,313,61969
1,314,62006
1,315,61948
1,316,61977
1,317,61929
1,318,61915
1,319,61901
1,320,61933
1,321,61952
1,322,61908
1,323,61962
1,324,61967
1,325,61947
1,326,62009
1,327,62001
1,328,61958
1,329,61927
1,330,61960
1,331,61968
1,332,61949
1,333,62029
1,334,61990
1,335,61920
1,336,61921
1,337,61947
1,338,61898
1,339,61924
1,340,61995
1,341,62033
1,342,61979
1,343,61962
1,344,61928
1,345,61958
1,346,61940
1,347,61960
1,348,61962
1,349,61966
1,350,61908
1,351,61899
1,352,61943
1,353,62000
1,354,61928
1,355,61979
1,356,61945
1,357,61907
1,358,61979
1,359,61957
1,360,61947
1,361,61967
1,362,61938
1,363,61946
1,364,61954
1,365,61958
1,366,61968
1,367,61947
1,368,61881
1,369,62003
1,370,61966
1,371,61990
1,372,61965
1,373,61929
1,374,61943
1,375,61959
1,376,61967
1,377,61949
1,378,61922
1,379,61972
1,380,61912
1,381,61928
1,382,61958
1,383,61961
1,384,61915
1,385,61958
1,386,61973
1,387,61979
1,388,61939
1,389,61945
1,390,61883
1,391,61913
1,392,61952
1,393,61952
1,394,61948
1,395,61922
1,396,61966
1,397,61958
1,398,61958
1,399,61936
1,400,61970
1,401,61959
1,402,61938
1,403,62016
1,404,62004
1,405,61989
1,406,61980
1,407,61972
1,408,61977
1,409,61940
1,410,61936
1,411,61956
1,412,61954
1,413,61962
1,414,61961
1,415,61958
1,416,62005
1,417,61938
1,418,61966
1,419,61931
1,420,61947
1,421,61989
1,422,61942
1,423,61916
1,424,61958
1,425,61943
1,426,61929
1,427,61973
1,428,61971
1,429,61979
1,430,61969
1,431,61953
1,432,61960
1,433,61941
1,434,61944
1,435,61954
1,436,61952
1,437,61937
1,438,61940
1,439,61899
1,440,61923
1,441,61959
1,442,61884
1,443,62015
1,444,61931
1,445,61932
1,446,61973
1,447,61935
1,448,61943
1,449,61946
1,450,61977
1,451,61981
1,452,61933
1,453,62007
1,454,61979
1,455,62006
1,456,61954
1,457,61928
1,458,61887
1,459,61967
1,460,61939
1,461,62041
1,462,61964
1,463,61963
1,464,61934
1,465,61961
1,466,61954
1,467,61908
1,468,61933
1,469,61895
1,470,62007
1,471,62005
1,472,61939
1,473,61951
1,474,61962
1,475,61950
1,476,61943
1,477,62004
1,478,61946
1,479,61956
1,480,61967
1,481,61953
1,482,61980
1,483,61991
1,484,61977
1,485,61900
1,486,61961
1,487,61986
1,488,61963
1,489,61945
1,490,61950
1,491,61956
1,492,61964
1,493,61950
1,494,61967
1,495,61979
1,496,62001
1,497,61910
1,498,61964
1,499,61925
1,500,61936
1,501,61940
1,502,61967
1,503,61925
1,504,61961
1,505,61926
1,506,61979
1,507,61932
1,508,61984
1,509,61929
1,510,61960
1,511,61958
1,512,61963
1,513,61952
1,514,61987
1,515,61948
1,516,61949
1,517,62016
1,518,61966
1,519,61948
1,520,61939
1,521,61987
1,522,61953
1,523,61939
1,524,61944
1,525,61956
1,526,61954
1,527,62018
1,528,61961
1,529,61976
1,530,61953
1,531,61901
1,532,61920
1,533,61955
1,534,61972
1,535,61948
1,536,61966
1,537,61971
1,538,61950
1,539,62046
1,540,61962
1,541,61968
1,542,61905
1,543,61935
1,544,61997
1,545,61991
1,546,61972
1,547,61931
1,548,61971
1,549,61923
1,550,61948
1,551,61987
1,552,61968
1,553,61959
1,554,61970
1,555,61945
1,556,61938
1,557,61949
1,558,61974
1,559,61947
1,560,61973
1,561,61959
1,562,61988
1,563,61968
1,564,61987
1,565,61891
1,566,61907
1,567,61942
1,568,61938
1,569,61946
1,570,61971
1,571,61961
1,572,61932
1,573,61966
1,574,61956
1,575,62032
1,576,61951
1,577,62003
1,578,61962
1,579,61955
1,580,61961
1,581,61958
1,582,61894
1,583,61959
1,584,61979
1,585,61955
1,586,61962
1,587,61978
1,588,62011
1,589,61930
1,590,61911
1,591,61959
1,592,61980
1,593,61938
1,594,61975
1,595,61984
1,596,61945
1,597,61972
1,598,61987
1,599,61967
1,600,61949
1,601,61971
1,602,61982
1,603,61942
1,604,61937
1,605,61904
1,606,61925
1,607,61970
1,608,61932
1,609,61956
1,610,61986
1,611,61938
1,612,61935
1,613,61957
1,614,61953
1,615,61924
1,616,61879
1,617,61983
1,618,61969
1,619,61979
1,620,61979
1,621,61941
1,622,61936
1,623,61983
1,624,61963
1,625,61955
1,626,61974
1,627,61951
1,628,61881
1,629,61971
1,630,61941
1,631,61958
1,632,61993
1,633,61965
1,634,61937
1,635,62010
1,636,61941
1,637,61964
1,638,61972
1,639,61936
1,640,61910
1,641,61961
1,642,61950
1,643,61993
1,644,61994
1,645,61963
1,646,61965
1,647,61937
1,648,61976
1,649,61978
1,650,61972
1,651,61961
1,652,61941
1,653,61993
1,654,61996
1,655,61947
1,656,61963
1,657,61970
1,658,61975
1,659,61973
1,660,61943
1,661,61949
1,662,61995
1,663,61932
1,664,61970
1,665,61993
1,666,61972
1,667,61918
1,668,61959
1,669,61928
1,670,61990
1,671,61969
1,672,61970
1,673,61950
1,674,61926
1,675,61930
1,676,61948
1,677,61968
1,678,61972
1,679,61966
1,680,62003
1,681,62175
1,682,61945
1,683,61942
1,684,61919
1,685,61974
1,686,61942
1,687,61957
1,688,61946
1,689,61979
1,690,61968
1,691,61957
1,692,61957
1,693,61948
1,694,61910
1,695,62004
1,696,61952
1,697,61988
1,698,61997
1,699,61981
1,700,61940
1,701,61949
1,702,61971
1,703,61974
1,704,62005
1,705,61944
1,706,61948
1,707,61982
1,708,61988
1,709,61973
1,710,61939
1,711,61957
1,712,61967
1,713,61931
1,714,61965
1,715,61988
1,716,61916
1,717,61938
1,718,61967
1,719,61952
1,720,61935
1,721,61976
1,722,62018
1,723,61947
1,724,62015
1,725,61971
1,726,61930
1,727,61971
1,728,61967
1,729,61953
1,730,61975
1,731,61950
1,732,61956
1,733,61985
1,734,61981
1,735,61940
1,736,61914
1,737,61993
1,738,61966
1,739,61962
1,740,61947
1,741,61997
1,742,62006
1,743,61948
1,744,61968
1,745,61986
1,746,62011
1,747,61986
1,748,61923
1,749,61983
1,750,61965
1,751,61964
1,752,61965
1,753,61910
1,754,61993
1,755,61939
1,756,62024
1,757,61957
1,758,61963
1,759,61947
1,760,61914
1,761,61981
1,762,61968
1,763,61929
1,764,61970
1,765,61978
1,766,61945
1,767,61942
1,768,61966
1,769,61961
1,770,61940
1,771,61951
1,772,61949
1,773,61957
1,774,61938
1,775,61934
1,776,62001
1,777,61924
1,778,61980
1,779,61964
1,780,61932
1,781,61922
1,782,61950
1,783,61961
1,784,61996
1,785,61975
1,786,61988
1,787,61954
1,788,61942
1,789,61946
1,790,61924
1,791,61969
1,792,61989
1,793,61978
1,794,61932
1,795,61932
1,796,61959
1,797,61971
1,798,61988
1,799,61958
1,800,61967
1,801,61970
1,802,61985
1,803,61944
1,804,61972
1,805,61905
1,806,61946
1,807,61992
1,808,61966
1,809,61962
1,810,61946
1,811,61947
1,812,61953
1,813,61957
1,814,61980
1,815,61974
1,816,61955
1,817,61948
1,818,61934
1,819,61979
1,820,61995
1,821,61993
1,822,61953
1,823,61952
1,824,61969
1,825,61936
1,826,61940
1,827,61920
1,828,61977
1,829,61952
1,830,61936
1,831,61938
1,832,62007
1,833,61937
1,834,61949
1,835,61953
1,836,62009
1,837,61904
1,838,61927
1,839,61931
1,840,61939
1,841,61953
1,842,62026
1,843,61971
1,844,61925
1,845,61980
1,846,61944
1,847,61958
1,848,61989
1,849,61957
1,850,61941
1,851,61953
1,852,61977
1,853,62024
1,854,61899
1,855,61972
1,856,61947
1,857,61955
1,858,61932
1,859,61946
1,860,61950
1,861,61956
1,862,61939
1,863,61963
1,864,61919
1,865,61947
1,866,61959
1,867,61959
1,868,61975
1,869,61999
1,870,62028
1,871,61931
1,872,62002
1,873,61963
1,874,61903
1,875,61949
1,876,61974
1,877,61934
1,878,61925
1,879,61900
1,880,61947
1,881,61934
1,882,61947
1,883,61958
1,884,61944
1,885,61966
1,886,61963
1,887,61933
1,888,61982
1,889,61938
1,890,61934
1,891,61905
1,892,61991
1,893,61974
1,894,61961
1,895,61967
1,896,61935
1,897,61941
1,898,61970
1,899,61964
1,900,61974
1,901,61949
1,902,61933
1,903,61928
1,904,61971
1,905,61937
1,906,61943
1,907,61903
1,908,62006
1,909,61990
1,910,61965
1,911,61973
1,912,61975
1,913,61972
1,914,61930
1,915,61976
1,916,62005
1,917,61947
1,918,61940
1,919,61989
1,920,61994
1,921,61997
1,922,61945
1,923,61988
1,924,61955
1,925,61925
1,926,61999
1,927,61896
1,928,61897
1,929,61972
1,930,61960
1,931,61953
1,932,61968
1,933,61940
1,934,61957
1,935,61945
1,936,61973
1,937,61939
1,938,61922
1,939,61939
1,940,61975
1,941,61980
1,942,61919
1,943,62000
1,944,61962
1,945,61962
1,946,61947
1,947,61972
1,948,61949
1,949,61918
1,950,61940
1,951,61925
1,952,61970
1,953,61947
1,954,61977
1,955,62047
1,956,61926
1,957,61976
1,958,61920
1,959,61960
1,960,61991
1,961,61939
1,962,61944
1,963,61931
1,964,61963
1,965,61897
1,966,61915
1,967,61887
1,968,61916
1,969,61943
1,970,61948
1,971,61901
1,972,61959
1,973,61947
1,974,61948
1,975,61992
1,976,61972
1,977,61984
1,978,61938
1,979,61936
1,980,61945
1,981,61977
1,982,61925
1,983,61955
1,984,61919
1,985,61933
1,986,61968
1,987,61934
1,988,61921
1,989,61901
1,990,61978
1,991,61931
1,992,61981
1,993,61982
1,994,61966
1,995,61946
1,996,61985
1,997,61954
1,998,61971
1,999,61933
1,1000,61982
1,1001,61961
1,1002,61953
1,1003,61956
1,1004,61985
1,1005,61962
1,1006,61951
1,1007,62004
1,1008,61971
1,1009,61959
1,1010,61975
1,1011,61967
1,1012,61987
1,1013,61979
1,1014,61954
1,1015,61986
1,1016,61948
1,1017,61997
1,1018,61963
1,1019,61964
1,1020,61965
1,1021,61949
1,1022,61969
1,1023,61975
1,1024,61915
1,1025,61938
1,1026,61955
1,1027,61956
1,1028,61951
1,1029,61975
1,1030,62018
1,1031,61989
1,1032,61920
1,1033,61977
1,1034,62027
1,1035,61964
1,1036,62002
1,1037,61962
1,1038,62004
1,1039,61990
1,1040,61978
1,1041,62030
1,1042,61948
1,1043,61980
1,1044,62005
1,1045,61976
1,1046,61981
1,1047,61999
1,1048,61946
1,1049,61965
1,1050,61924
1,1051,61968
1,1052,62021
1,1053,61989
1,1054,61966
1,1055,61965
1,1056,61914
1,1057,61978
1,1058,61964
1,1059,61961
1,1060,61977
1,1061,61977
1,1062,61907
1,1063,61956
1,1064,61974
1,1065,61971
1,1066,62009
1,1067,61939
1,1068,61951
1,1069,61914
1,1070,61959
1,1071,61978
1,1072,61945
1,1073,61975
1,1074,61909
1,1075,61957
1,1076,61922
1,1077,61925
1,1078,61940
1,1079,61978
1,1080,61925
1,1081,61956
1,1082,61935
1,1083,61960
1,1084,61983
1,1085,61932
1,1086,61902
1,1087,61954
1,1088,61968
1,1089,61925
1,1090,61941
1,1091,61922
1,1092,61992
1,1093,61957
1,1094,61977
1,1095,62000
1,1096,61944
1,1097,61974
1,1098,61961
1,1099,61968
1,1100,61935
1,1101,62003
1,1102,62022
1,1103,62106
1,1104,61990
1,1105,61954
1,1106,61986
1,1107,61993
1,1108,61936
1,1109,61960
1,1110,61955
1,1111,61962
1,1112,61937
1,1113,61994
1,1114,61941
1,1115,62012
1,1116,61992
1,1117,61923
1,1118,61964
1,1119,61952
1,1120,62030
1,1121,61996
1,1122,61986
1,1123,61981
1,1124,62012
1,1125,62001
1,1126,61950
1,1127,61972
1,1128,61977
1,1129,61957
1,1130,61949
1,1131,61998
1,1132,61968
1,1133,61946
1,1134,61984
1,1135,61954
1,1136,61958
1,1137,61970
1,1138,61935
1,1139,62004
1,1140,61959
1,1141,61939
1,1142,62000
1,1143,61996
1,1144,61975
1,1145,61952
1,1146,62189
1,1147,61989
1,1148,62039
1,1149,61987
1,1150,61986
1,1151,61995
1,1152,61982
1,1153,61955
1,1154,61995
1,1155,61965
1,1156,61944
1,1157,61956
1,1158,61988
1,1159,61958
1,1160,61942
1,1161,62003
1,1162,61988
1,1163,61963
1,1164,61986
1,1165,61982
1,1166,61972
1,1167,61987
1,1168,61973
1,1169,62006
1,1170,61976
1,1171,61975
1,1172,61936
1,1173,61953
1,1174,62001
1,1175,61907
1,1176,61989
1,1177,61935
1,1178,61918
1,1179,61968
1,1180,61958
1,1181,61950
1,1182,61981
1,1183,61984
1,1184,61974
1,1185,61991
1,1186,61928
1,1187,61972
1,1188,62003
1,1189,61969
1,1190,61979
1,1191,61958
1,1192,61902
1,1193,61947
1,1194,61998
1,1195,61961
1,1196,62007
1,1197,61974
1,1198,61966
1,1199,61984
1,1200,61968
1,1201,62030
1,1202,61959
1,1203,61978
1,1204,61946
1,1205,61964
1,1206,61944
1,1207,61989
1,1208,62000
1,1209,61972
1,1210,61951
1,1211,62023
1,1212,61977
1,1213,61953
1,1214,61986
1,1215,61970
1,1216,61954
1,1217,61949
1,1218,61964
1,1219,61982
1,1220,61980
1,1221,61971
1,1222,61993
1,1223,62055
1,1224,61986
1,1225,61934
1,1226,61967
1,1227,61900
1,1228,62006
1,1229,62016
1,1230,61992
1,1231,61997
1,1232,62056
1,1233,62008
1,1234,61988
1,1235,62013
1,1236,62017
1,1237,62038
1,1238,62012
1,1239,61997
1,1240,62017
1,1241,62078
1,1242,62004
1,1243,62039
1,1244,61992
1,1245,62024
1,1246,62007
1,1247,62043
1,1248,62062
1,1249,62051
1,1250,62046
1,1251,62084
1,1252,62087
1,1253,62122
1,1254,62072
1,1255,62011
1,1256,62027
1,1257,62074
1,1258,62089
1,1259,62031
1,1260,62040
1,1261,62054
1,1262,62090
1,1263,62012
1,1264,62047
1,1265,62060
1,1266,62046
1,1267,62050
1,1268,62071
1,1269,62009
1,1270,62003
1,1271,62010
1,1272,62074
1,1273,62015
1,1274,62066
1,1275,62070
1,1276,62040
1,1277,62088
1,1278,62003
1,1279,62054
1,1280,62096
1,1281,62048
1,1282,62049
1,1283,62053
1,1284,62076
1,1285,62033
1,1286,62081
1,1287,62080
1,1288,62079
1,1289,62057
1,1290,62041
1,1291,62032
1,1292,62042
1,1293,62010
1,1294,62037
1,1295,62061
1,1296,62085
1,1297,62028
1,1298,62057
1,1299,62057
1,1300,61975
1,1301,62033
1,1302,62037
1,1303,62039
1,1304,62060
1,1305,62132
1,1306,62068
1,1307,62065
1,1308,62058
1,1309,61996
1,1310,62048
1,1311,62059
1,1312,62065
1,1313,62061
1,1314,62081
1,1315,62095
1,1316,62088
1,1317,62092
1,1318,62023
1,1319,62096
1,1320,62071
1,1321,62016
1,1322,62067
1,1323,61992
1,1324,62021
1,1325,61999
1,1326,62025
1,1327,62032
1,1328,62059
1,1329,62040
1,1330,62034
1,1331,62056
1,1332,62033
1,1333,61993
1,1334,62017
1,1335,61982
1,1336,61953
1,1337,61934
1,1338,61870
1,1339,61579
1,1340,70348
