1,1,61685
1,2,61620
1,3,61638
1,4,61646
1,5,61638
1,6,61623
1,7,61649
1,8,61652
1,9,61675
1,10,61670
1,11,61616
1,12,61620
1,13,61635
1,14,61635
1,15,61647
1,16,61644
1,17,61641
1,18,61617
1,19,61634
1,20,61674
1,21,61623
1,22,61616
1,23,61707
1,24,61700
1,25,61664
1,26,61681
1,27,61631
1,28,61645
1,29,61673
1,30,61590
1,31,61641
1,32,61672
1,33,61598
1,34,61598
1,35,61663
1,36,61614
1,37,61642
1,38,61664
1,39,61611
1,40,61649
1,41,61625
1,42,61636
1,43,61592
1,44,61672
1,45,61655
1,46,61631
1,47,61662
1,48,61623
1,49,61613
1,50,61656
1,51,61615
1,52,61619
1,53,61611
1,54,61620
1,55,61617
1,56,61627
1,57,61686
1,58,61661
1,59,61665
1,60,61667
1,61,61639
1,62,61626
1,63,61673
1,64,61615
1,65,61651
1,66,61674
1,67,61598
1,68,61643
1,69,61647
1,70,61608
1,71,61634
1,72,61683
1,73,61590
1,74,61626
1,75,61675
1,76,61593
1,77,61635
1,78,61665
1,79,61597
1,80,61639
1,81,61697
1,82,61625
1,83,61608
1,84,61658
1,85,61649
1,86,61634
1,87,61664
1,88,61621
1,89,61636
1,90,61627
1,91,61621
1,92,61626
1,93,61672
1,94,61660
1,95,61654
1,96,61658
1,97,61652
1,98,61662
1,99,61674
1,100,61618
1,101,61641
1,102,61669
1,103,61649
1,104,61631
1,105,61648
1,106,61672
1,107,61638
1,108,61652
1,109,61638
1,110,61633
1,111,61643
1,112,61645
1,113,61601
1,114,61667
1,115,61695
1,116,61608
1,117,61646
1,118,61679
1,119,61638
1,120,61620
1,121,61676
1,122,61638
1,123,61631
1,124,61667
1,125,61654
1,126,61656
1,127,61653
1,128,61629
1,129,61595
1,130,61647
1,131,61663
1,132,61652
1,133,61641
1,134,61651
1,135,61599
1,136,61605
1,137,61638
1,138,61638
1,139,61640
1,140,61611
1,141,61615
1,142,61669
1,143,61637
1,144,61615
1,145,61637
1,146,61624
1,147,61597
1,148,61680
1,149,61657
1,150,61655
1,151,61661
1,152,61688
1,153,61604
1,154,61621
1,155,61706
1,156,61631
1,157,61608
1,158,61672
1,159,61622
1,160,61613
1,161,61659
1,162,61615
1,163,61613
1,164,61640
1,165,61635
1,166,61600
1,167,61673
1,168,61626
1,169,61607
1,170,61703
1,171,61601
1,172,61630
1,173,61647
1,174,61638
1,175,61677
1,176,61656
1,177,61637
1,178,61636
1,179,61627
1,180,61619
1,181,61623
1,182,61674
1,183,61683
1,184,61640
1,185,61630
1,186,61638
1,187,61641
1,188,61682
1,189,61613
1,190,61600
1,191,61641
1,192,61645
1,193,61576
1,194,61597
1,195,61658
1,196,61614
1,197,61641
1,198,61677
1,199,61616
1,200,61676
1,201,61702
1,202,61641
1,203,61671
1,204,61667
1,205,61640
1,206,61661
1,207,61641
1,208,61626
1,209,61653
1,210,61650
1,211,61655
1,212,61672
1,213,61632
1,214,61634
1,215,61648
1,216,61637
1,217,61656
1,218,61683
1,219,61640
1,220,61617
1,221,61649
1,222,61667
1,223,61629
1,224,61655
1,225,61682
1,226,61630
1,227,61648
1,228,61684
1,229,61611
1,230,61640
1,231,61666
1,232,61661
1,233,61603
1,234,61652
1,235,61681
1,236,61603
1,237,61655
1,238,61616
1,239,61661
1,240,61678
1,241,61679
1,242,61648
1,243,61636
1,244,61680
1,245,61679
1,246,61624
1,247,61660
1,248,61595
1,249,61640
1,250,61625
1,251,61631
1,252,61645
1,253,61651
1,254,61576
1,255,61634
1,256,61646
1,257,61638
1,258,61641
1,259,61656
1,260,61657
1,261,61639
1,262,61655
1,263,61644
1,264,61640
1,265,61654
1,266,61621
1,267,61588
1,268,61659
1,269,61672
1,270,61612
1,271,61675
1,272,61612
1,273,61643
1,274,61661
1,275,61652
1,276,61598
1,277,61633
1,278,61612
1,279,61625
1,280,61683
1,281,61649
1,282,61648
1,283,61640
1,284,61661
1,285,61617
1,286,61634
1,287,61667
1,288,61688
1,289,61676
1,290,61637
1,291,61630
1,292,61654
1,293,61607
1,294,61630
1,295,61676
1,296,61654
1,297,61597
1,298,61630
1,299,61658
1,300,61667
1,301,61621
1,302,61665
1,303,61634
1,304,61632
1,305,61662
1,306,61609
1,307,61597
1,308,61673
1,309,61685
1,310,61602
1,311,61673
1,312,61673
1,313,61654
1,314,61618
1,315,61674
1,316,61639
1,317,61640
1,318,61624
1,319,61587
1,320,61658
1,321,61643
1,322,61605
1,323,61658
1,324,61616
1,325,61648
1,326,61683
1,327,61630
1,328,61649
1,329,61641
1,330,61629
1,331,61674
1,332,61681
1,333,61682
1,334,61621
1,335,61687
1,336,61676
1,337,61642
1,338,61624
1,339,61681
1,340,61611
1,341,61640
1,342,61676
1,343,61657
1,344,61640
1,345,61647
1,346,61665
1,347,61629
1,348,61691
1,349,61671
1,350,61632
1,351,61624
1,352,61595
1,353,61593
1,354,61644
1,355,61628
1,356,61612
1,357,61657
1,358,61655
1,359,61612
1,360,61655
1,361,61613
1,362,61666
1,363,61666
1,364,61637
1,365,61619
1,366,61656
1,367,61641
1,368,61643
1,369,61652
1,370,61603
1,371,61633
1,372,61694
1,373,61622
1,374,61634
1,375,61662
1,376,61682
1,377,61630
1,378,61683
1,379,61626
1,380,61655
1,381,61659
1,382,61695
1,383,61654
1,384,61633
1,385,61665
1,386,61624
1,387,61646
1,388,61664
1,389,61639
1,390,61621
1,391,61669
1,392,61670
1,393,61628
1,394,61683
1,395,61645
1,396,61624
1,397,61659
1,398,61630
1,399,61640
1,400,61647
1,401,61620
1,402,61597
1,403,61671
1,404,61602
1,405,61660
1,406,61633
1,407,61615
1,408,61598
1,409,61681
1,410,61655
1,411,61633
1,412,61663
1,413,61641
1,414,61639
1,415,61646
1,416,61681
1,417,61648
1,418,61637
1,419,61638
1,420,61601
1,421,61623
1,422,61654
1,423,61635
1,424,61625
1,425,61636
1,426,61664
1,427,61611
1,428,61652
1,429,61631
1,430,61614
1,431,61637
1,432,61620
1,433,61636
1,434,61655
1,435,61646
1,436,61623
1,437,61669
1,438,61653
1,439,61615
1,440,61642
1,441,61619
1,442,61647
1,443,61677
1,444,61639
1,445,61653
1,446,61665
1,447,61627
1,448,61642
1,449,61710
1,450,61625
1,451,61663
1,452,61680
1,453,61583
1,454,61641
1,455,61683
1,456,61640
1,457,61622
1,458,61658
1,459,61649
1,460,61620
1,461,61616
1,462,61664
1,463,61658
1,464,61642
1,465,61637
1,466,61668
1,467,61640
1,468,61659
1,469,61641
1,470,61634
1,471,61685
1,472,61633
1,473,61647
1,474,61671
1,475,61643
1,476,61663
1,477,61668
1,478,61668
1,479,61647
1,480,61664
1,481,61615
1,482,61649
1,483,61704
1,484,61634
1,485,61651
1,486,61652
1,487,61609
1,488,61628
1,489,61678
1,490,61593
1,491,61650
1,492,61645
1,493,61627
1,494,61641
1,495,61690
1,496,61610
1,497,61633
1,498,61627
1,499,61624
1,500,61666
1,501,61646
1,502,61626
1,503,61629
1,504,61667
1,505,61628
1,506,61621
1,507,61666
1,508,61643
1,509,61666
1,510,61677
1,511,61638
1,512,61647
1,513,61627
1,514,61684
1,515,61604
1,516,61639
1,517,61698
1,518,61632
1,519,61634
1,520,61642
1,521,61609
1,522,61678
1,523,61684
1,524,61582
1,525,61653
1,526,61681
1,527,61633
1,528,61626
1,529,61715
1,530,61617
1,531,61638
1,532,61681
1,533,61606
1,534,61631
1,535,61655
1,536,61660
1,537,61629
1,538,61682
1,539,61640
1,540,61664
1,541,61671
1,542,61614
1,543,61639
1,544,61651
1,545,61643
1,546,61644
1,547,61637
1,548,61666
1,549,61639
1,550,61660
1,551,61648
1,552,61640
1,553,61616
1,554,61672
1,555,61645
1,556,61647
1,557,61663
1,558,61590
1,559,61618
1,560,61641
1,561,61606
1,562,61618
1,563,61675
1,564,61623
1,565,61602
1,566,61708
1,567,61609
1,568,61630
1,569,61684
1,570,61662
1,571,61631
1,572,61653
1,573,61626
1,574,61679
1,575,61657
1,576,61623
1,577,61667
1,578,61667
1,579,61627
1,580,61685
1,581,61653
1,582,61635
1,583,61652
1,584,61658
1,585,61635
1,586,61609
1,587,61668
1,588,61586
1,589,61634
1,590,61673
1,591,61633
1,592,61605
1,593,61659
1,594,61636
1,595,61613
1,596,61672
1,597,61687
1,598,61616
1,599,61644
1,600,61663
1,601,61617
1,602,61663
1,603,61646
1,604,61634
1,605,61635
1,606,61683
1,607,61654
1,608,61655
1,609,61721
1,610,61602
1,611,61681
1,612,61653
1,613,61656
1,614,61620
1,615,61643
1,616,61642
1,617,61644
1,618,61684
1,619,61624
1,620,61655
1,621,61646
1,622,61647
1,623,61630
1,624,61658
1,625,61621
1,626,61622
1,627,61682
1,628,61604
1,629,61647
1,630,61631
1,631,61642
1,632,61584
1,633,61664
1,634,61626
1,635,61602
1,636,61638
1,637,61633
1,638,61613
1,639,61671
1,640,61673
1,641,61625
1,642,61661
1,643,61664
1,644,61654
1,645,61665
1,646,61682
1,647,61629
1,648,61657
1,649,61662
1,650,61608
1,651,61629
1,652,61651
1,653,61665
1,654,61628
1,655,61680
1,656,61623
1,657,61635
1,658,61644
1,659,61668
1,660,61659
1,661,61657
1,662,61623
1,663,61689
1,664,61669
1,665,61625
1,666,61638
1,667,61677
1,668,61674
1,669,61598
1,670,61696
1,671,61641
1,672,61647
1,673,61642
1,674,61622
1,675,61679
1,676,61662
1,677,61605
1,678,61605
1,679,61678
1,680,61670
1,681,61588
1,682,61663
1,683,61659
1,684,61641
1,685,61664
1,686,61677
1,687,61604
1,688,61631
1,689,61668
1,690,61665
1,691,61689
1,692,61628
1,693,61646
1,694,61632
1,695,61653
1,696,61648
1,697,61632
1,698,61647
1,699,61656
1,700,61647
1,701,61610
1,702,61644
1,703,61632
1,704,61658
1,705,61632
1,706,61672
1,707,61685
1,708,61704
1,709,61667
1,710,61652
1,711,61637
1,712,61606
1,713,61638
1,714,61669
1,715,61648
1,716,61634
1,717,61665
1,718,61653
1,719,61660
1,720,61659
1,721,61641
1,722,61690
1,723,61647
1,724,61625
1,725,61643
1,726,61601
1,727,61644
1,728,61671
1,729,61676
1,730,61645
1,731,61679
1,732,61651
1,733,61612
1,734,61636
1,735,61651
1,736,61673
1,737,61685
1,738,61647
1,739,61682
1,740,61666
1,741,61658
1,742,61638
1,743,61653
1,744,61677
1,745,61631
1,746,61612
1,747,61673
1,748,61632
1,749,61646
1,750,61678
1,751,61619
1,752,61630
1,753,61670
1,754,61649
1,755,61608
1,756,61708
1,757,61684
1,758,61589
1,759,61654
1,760,61669
1,761,61620
1,762,61672
1,763,61651
1,764,61635
1,765,61645
1,766,61652
1,767,61633
1,768,61662
1,769,61637
1,770,61609
1,771,61697
1,772,61659
1,773,61645
1,774,61669
1,775,61627
1,776,61638
1,777,61635
1,778,61641
1,779,61688
1,780,61690
1,781,61677
1,782,61628
1,783,61676
1,784,61634
1,785,61659
1,786,61644
1,787,61641
1,788,61599
1,789,61623
1,790,61681
1,791,61659
1,792,61674
1,793,61655
1,794,61630
1,795,61617
1,796,61689
1,797,61671
1,798,61642
1,799,61663
1,800,61624
1,801,61623
1,802,61689
1,803,61621
1,804,61605
1,805,61706
1,806,61660
1,807,61641
1,808,61625
1,809,61674
1,810,61615
1,811,61657
1,812,61625
1,813,61634
1,814,61675
1,815,61662
1,816,61632
1,817,61684
1,818,61617
1,819,61644
1,820,61657
1,821,61636
1,822,61684
1,823,61669
1,824,61659
1,825,61625
1,826,61668
1,827,61697
1,828,61665
1,829,61681
1,830,61683
1,831,61644
1,832,61667
1,833,61704
1,834,61686
1,835,61632
1,836,61653
1,837,61606
1,838,61611
1,839,61682
1,840,61666
1,841,61623
1,842,61661
1,843,61657
1,844,61598
1,845,61624
1,846,61643
1,847,61620
1,848,61634
1,849,61653
1,850,61635
1,851,61680
1,852,61612
1,853,61614
1,854,61694
1,855,61608
1,856,61626
1,857,61703
1,858,61659
1,859,61651
1,860,61665
1,861,61675
1,862,61625
1,863,61680
1,864,61654
1,865,61656
1,866,61650
1,867,61673
1,868,61624
1,869,61658
1,870,61644
1,871,61606
1,872,61614
1,873,61613
1,874,61631
1,875,61639
1,876,61660
1,877,61671
1,878,61666
1,879,61684
1,880,61619
1,881,61643
1,882,61633
1,883,61627
1,884,61644
1,885,61682
1,886,61649
1,887,61657
1,888,61650
1,889,61646
1,890,61624
1,891,61701
1,892,61602
1,893,61646
1,894,61686
1,895,61619
1,896,61648
1,897,61658
1,898,61637
1,899,61637
1,900,61710
1,901,61621
1,902,61604
1,903,61662
1,904,61660
1,905,61644
1,906,61702
1,907,61650
1,908,61632
1,909,61678
1,910,61649
1,911,61673
1,912,61648
1,913,61643
1,914,61671
1,915,61658
1,916,61692
1,917,61665
1,918,61661
1,919,61671
1,920,61670
1,921,61653
1,922,61669
1,923,61616
1,924,61648
1,925,61679
1,926,61641
1,927,61711
1,928,61664
1,929,61599
1,930,61641
1,931,61693
1,932,61629
1,933,61611
1,934,61708
1,935,61630
1,936,61614
1,937,61628
1,938,61617
1,939,61644
1,940,61663
1,941,61629
1,942,61665
1,943,61641
1,944,61654
1,945,61644
1,946,61686
1,947,61634
1,948,61660
1,949,61662
1,950,61616
1,951,61680
1,952,61677
1,953,61642
1,954,61656
1,955,61663
1,956,61658
1,957,61616
1,958,61611
1,959,61695
1,960,61651
1,961,61665
1,962,61646
1,963,61651
1,964,61699
1,965,61686
1,966,61617
1,967,61689
1,968,61729
1,969,61614
1,970,61698
1,971,61705
1,972,61609
1,973,61643
1,974,61707
1,975,61590
1,976,61630
1,977,61653
1,978,61593
1,979,61631
1,980,61688
1,981,61623
1,982,61629
1,983,61654
1,984,61668
1,985,61653
1,986,61677
1,987,61643
1,988,61606
1,989,61646
1,990,61645
1,991,61615
1,992,61657
1,993,61668
1,994,61664
1,995,61656
1,996,61617
1,997,61687
1,998,61642
1,999,61657
1,1000,61645
1,1001,61658
1,1002,61658
1,1003,61620
1,1004,61644
1,1005,61641
1,1006,61633
1,1007,61695
1,1008,61679
1,1009,61643
1,1010,61657
1,1011,61668
1,1012,61625
1,1013,61683
1,1014,61700
1,1015,61593
1,1016,61645
1,1017,61656
1,1018,61636
1,1019,61682
1,1020,61651
1,1021,61648
1,1022,61700
1,1023,61700
1,1024,61673
1,1025,61646
1,1026,61662
1,1027,61648
1,1028,61638
1,1029,61677
1,1030,61668
1,1031,61657
1,1032,61677
1,1033,61634
1,1034,61628
1,1035,61669
1,1036,61679
1,1037,61588
1,1038,61681
1,1039,61699
1,1040,61627
1,1041,61651
1,1042,61684
1,1043,61626
1,1044,61662
1,1045,61682
1,1046,61629
1,1047,61681
1,1048,61650
1,1049,61610
1,1050,61682
1,1051,61672
1,1052,61638
1,1053,61677
1,1054,61670
1,1055,61609
1,1056,61656
1,1057,61648
1,1058,61635
1,1059,61685
1,1060,61689
1,1061,61628
1,1062,61656
1,1063,61674
1,1064,61631
1,1065,61662
1,1066,61664
1,1067,61623
1,1068,61706
1,1069,61651
1,1070,61648
1,1071,61677
1,1072,61616
1,1073,61600
1,1074,61673
1,1075,61626
1,1076,61641
1,1077,61690
1,1078,61616
1,1079,61611
1,1080,61645
1,1081,61620
1,1082,61668
1,1083,61662
1,1084,61683
1,1085,61641
1,1086,61601
1,1087,61732
1,1088,61673
1,1089,61605
1,1090,61653
1,1091,61624
1,1092,61620
1,1093,61641
1,1094,61677
1,1095,61663
1,1096,61667
1,1097,61654
1,1098,61592
1,1099,61697
1,1100,61632
1,1101,61637
1,1102,61700
1,1103,61680
1,1104,61615
1,1105,61671
1,1106,61683
1,1107,61639
1,1108,61713
1,1109,61659
1,1110,61657
1,1111,61663
1,1112,61647
1,1113,61651
1,1114,61709
1,1115,61659
1,1116,61650
1,1117,61650
1,1118,61698
1,1119,61666
1,1120,61659
1,1121,61696
1,1122,61672
1,1123,61662
1,1124,61683
1,1125,61707
1,1126,61657
1,1127,61687
1,1128,61725
1,1129,61652
1,1130,61659
1,1131,61683
1,1132,61643
1,1133,61702
1,1134,61704
1,1135,61667
1,1136,61694
1,1137,61687
1,1138,61683
1,1139,61701
1,1140,61685
1,1141,61644
1,1142,61664
1,1143,61692
1,1144,61648
1,1145,61691
1,1146,61670
1,1147,61645
1,1148,61668
1,1149,61689
1,1150,61658
1,1151,61681
1,1152,61697
1,1153,61670
1,1154,61652
1,1155,61703
1,1156,61658
1,1157,61684
1,1158,61651
1,1159,61630
1,1160,61651
1,1161,61695
1,1162,61690
1,1163,61637
1,1164,61677
1,1165,61670
1,1166,61645
1,1167,61663
1,1168,61665
1,1169,61665
1,1170,61714
1,1171,61689
1,1172,61653
1,1173,61686
1,1174,61656
1,1175,61664
1,1176,61670
1,1177,61670
1,1178,61668
1,1179,61701
1,1180,61683
1,1181,61695
1,1182,61666
1,1183,61657
1,1184,61665
1,1185,61691
1,1186,61642
1,1187,61666
1,1188,61728
1,1189,61676
1,1190,61678
1,1191,61685
1,1192,61689
1,1193,61647
1,1194,61712
1,1195,61665
1,1196,61654
1,1197,61691
1,1198,61655
1,1199,61659
1,1200,61624
1,1201,61680
1,1202,61707
1,1203,61596
1,1204,61698
1,1205,61675
1,1206,61633
1,1207,61673
1,1208,61668
1,1209,61652
1,1210,61687
1,1211,61660
1,1212,61666
1,1213,61678
1,1214,61687
1,1215,61674
1,1216,61722
1,1217,61673
1,1218,61667
1,1219,61708
1,1220,61671
1,1221,61664
1,1222,61696
1,1223,61700
1,1224,61664
1,1225,61706
1,1226,61673
1,1227,61653
1,1228,61703
1,1229,61695
1,1230,61714
1,1231,61734
1,1232,61683
1,1233,61665
1,1234,61712
1,1235,61736
1,1236,61675
1,1237,61716
1,1238,61738
1,1239,61695
1,1240,61690
1,1241,61717
1,1242,61703
1,1243,61726
1,1244,61773
1,1245,61719
1,1246,61690
1,1247,61740
1,1248,61743
1,1249,61681
1,1250,61751
1,1251,61713
1,1252,61728
1,1253,61719
1,1254,61695
1,1255,61716
1,1256,61763
1,1257,61754
1,1258,61734
1,1259,61761
1,1260,61744
1,1261,61751
1,1262,61737
1,1263,61691
1,1264,61738
1,1265,61797
1,1266,61741
1,1267,61737
1,1268,61757
1,1269,61717
1,1270,61734
1,1271,61739
1,1272,61780
1,1273,61717
1,1274,61775
1,1275,61710
1,1276,61690
1,1277,61748
1,1278,61778
1,1279,61714
1,1280,61744
1,1281,61770
1,1282,61733
1,1283,61726
1,1284,61781
1,1285,61759
1,1286,61769
1,1287,61729
1,1288,61749
1,1289,61767
1,1290,61746
1,1291,61728
1,1292,61770
1,1293,61741
1,1294,61717
1,1295,61765
1,1296,61764
1,1297,61763
1,1298,61753
1,1299,61728
1,1300,61712
1,1301,61778
1,1302,61791
1,1303,61733
1,1304,61762
1,1305,61792
1,1306,61718
1,1307,61742
1,1308,61820
1,1309,61747
1,1310,61772
1,1311,61747
1,1312,61740
1,1313,61748
1,1314,61751
1,1315,61734
1,1316,61747
1,1317,61799
1,1318,61776
1,1319,61748
1,1320,61766
1,1321,61763
1,1322,61751
1,1323,61760
1,1324,61732
1,1325,61731
1,1326,61752
1,1327,61765
1,1328,61766
1,1329,61720
1,1330,61729
1,1331,61732
1,1332,61710
1,1333,61744
1,1334,61699
1,1335,61675
1,1336,61660
1,1337,61583
1,1338,61608
1,1339,61329
1,1340,70156
