1,1,193740
1,2,194909
1,3,195966
1,4,197120
1,5,198122
1,6,199206
1,7,200286
1,8,201563
1,9,202237
1,10,202990
1,11,204522
1,12,205215
1,13,206475
1,14,207129
1,15,208142
1,16,209463
1,17,210310
1,18,211011
1,19,212452
1,20,213100
1,21,214155
1,22,215434
1,23,215574
1,24,216638
1,25,217229
1,26,218211
1,27,218570
1,28,219883
1,29,220552
1,30,221398
1,31,222401
1,32,223203
1,33,223781
1,34,224414
1,35,225103
1,36,225874
1,37,226380
1,38,227071
1,39,227543
1,40,228161
1,41,228440
1,42,229426
1,43,229925
1,44,230199
1,45,231051
1,46,231676
1,47,232220
1,48,232403
1,49,232901
1,50,233314
1,51,233894
1,52,233938
1,53,234736
1,54,234943
1,55,235694
1,56,236244
1,57,236369
1,58,237182
1,59,237494
1,60,238042
1,61,238031
1,62,238941
1,63,239250
1,64,239408
1,65,239991
1,66,239950
1,67,239925
1,68,239579
1,69,239761
1,70,239152
1,71,238382
1,72,237530
1,73,236197
1,74,234364
1,75,232410
1,76,228777
1,77,224604
1,78,219525
1,79,212890
1,80,206158
1,81,197487
1,82,188430
1,83,178637
1,84,168539
1,85,158715
1,86,149224
1,87,139924
1,88,131458
1,89,123663
1,90,115975
1,91,109566
1,92,103856
1,93,98496
1,94,94215
1,95,90267
1,96,87078
1,97,84219
1,98,81920
1,99,79824
1,100,78030
1,101,76401
1,102,75225
1,103,74207
1,104,73196
1,105,72480
1,106,71776
1,107,71347
1,108,70840
1,109,70420
1,110,70213
1,111,69906
1,112,69754
1,113,69534
1,114,69552
1,115,69295
1,116,69260
1,117,69198
1,118,69171
1,119,69036
1,120,69038
1,121,68981
1,122,68981
1,123,68932
1,124,68907
1,125,68897
1,126,68862
1,127,68787
1,128,68808
1,129,68766
1,130,68812
1,131,68701
1,132,68723
1,133,68789
1,134,68684
1,135,68634
1,136,68669
1,137,68652
1,138,68648
1,139,68623
1,140,68641
1,141,68683
1,142,68522
1,143,68615
1,144,68559
1,145,68673
1,146,68547
1,147,68593
1,148,68594
1,149,68595
1,150,68603
1,151,68520
1,152,68589
1,153,68556
1,154,68567
1,155,68515
1,156,68589
1,157,68573
1,158,68594
1,159,68597
1,160,68654
1,161,68710
1,162,68659
1,163,68684
1,164,68755
1,165,68777
1,166,68833
1,167,68937
1,168,68928
1,169,69075
1,170,69095
1,171,69166
1,172,69234
1,173,69336
1,174,69486
1,175,69471
1,176,69613
1,177,69628
1,178,69648
1,179,69746
1,180,69802
1,181,69757
1,182,69833
1,183,69887
1,184,69976
1,185,69875
1,186,69933
1,187,70038
1,188,70078
1,189,70160
1,190,70473
1,191,70682
1,192,71180
1,193,71781
1,194,72428
1,195,73340
1,196,74429
1,197,75690
1,198,77225
1,199,79103
1,200,81625
1,201,84683
1,202,88249
1,203,91622
1,204,95193
1,205,99005
1,206,102728
1,207,107300
1,208,112397
1,209,118418
1,210,124593
1,211,131104
1,212,137207
1,213,142521
1,214,147356
1,215,152450
1,216,158351
1,217,164436
1,218,171263
1,219,178601
1,220,185165
1,221,191454
1,222,196710
1,223,200700
1,224,204909
1,225,208898
1,226,213014
1,227,217390
1,228,222880
1,229,227726
1,230,232714
1,231,236767
1,232,240385
1,233,242566
1,234,245372
1,235,247850
1,236,251026
1,237,254254
1,238,258053
1,239,261987
1,240,265838
1,241,269104
1,242,272033
1,243,273867
1,244,275763
1,245,278361
1,246,280463
1,247,282807
1,248,286193
1,249,288875
1,250,291689
1,251,294447
1,252,296919
1,253,299062
1,254,300292
1,255,302056
1,256,303840
1,257,305425
1,258,307464
1,259,309651
1,260,311612
1,261,313552
1,262,315379
1,263,316999
1,264,318377
1,265,319510
1,266,320883
1,267,321921
1,268,323317
1,269,324874
1,270,325957
1,271,327937
1,272,328614
1,273,329419
1,274,330468
1,275,330926
1,276,331591
1,277,332558
1,278,333408
1,279,334617
1,280,335691
1,281,335913
1,282,337157
1,283,336728
1,284,337235
1,285,338336
1,286,338335
1,287,339032
1,288,339086
1,289,339529
1,290,340433
1,291,341303
1,292,341337
1,293,341228
1,294,341758
1,295,342030
1,296,342360
1,297,342929
1,298,343050
1,299,343108
1,300,343246
1,301,343405
1,302,343478
1,303,343555
1,304,343835
1,305,344376
1,306,344317
1,307,344204
1,308,344364
1,309,344203
1,310,343646
1,311,343864
1,312,344248
1,313,344688
1,314,344466
1,315,344390
1,316,344611
1,317,343889
1,318,344662
1,319,345001
1,320,344825
1,321,344463
1,322,344532
1,323,344215
1,324,344647
1,325,344697
1,326,344545
1,327,344269
1,328,344486
1,329,344634
1,330,344732
1,331,344360
1,332,343865
1,333,344073
1,334,343567
1,335,343777
1,336,342669
1,337,343128
1,338,342810
1,339,343092
1,340,343317
1,341,343346
1,342,342966
1,343,343102
1,344,342279
1,345,342760
1,346,342589
1,347,342245
1,348,341885
1,349,342271
1,350,341996
1,351,341637
1,352,341701
1,353,341571
1,354,341393
1,355,341137
1,356,341825
1,357,341128
1,358,340966
1,359,340681
1,360,340347
1,361,340194
1,362,340115
1,363,340031
1,364,339890
1,365,339574
1,366,339678
1,367,339887
1,368,339682
1,369,339886
1,370,339321
1,371,339362
1,372,339119
1,373,338994
1,374,339070
1,375,339068
1,376,339012
1,377,338092
1,378,338419
1,379,338424
1,380,338621
1,381,338428
1,382,337736
1,383,337697
1,384,337756
1,385,337813
1,386,337104
1,387,336649
1,388,336814
1,389,336620
1,390,336792
1,391,336776
1,392,336537
1,393,335970
1,394,335502
1,395,335591
1,396,335932
1,397,335978
1,398,335391
1,399,335292
1,400,335547
1,401,335548
1,402,334608
1,403,334862
1,404,334541
1,405,334927
1,406,334374
1,407,333665
1,408,334263
1,409,333914
1,410,333770
1,411,333914
1,412,333398
1,413,333362
1,414,333173
1,415,332455
1,416,332653
1,417,331930
1,418,332122
1,419,332013
1,420,331857
1,421,331809
1,422,331617
1,423,331612
1,424,331604
1,425,331398
1,426,330941
1,427,331174
1,428,330275
1,429,330034
1,430,329974
1,431,329953
1,432,330178
1,433,329914
1,434,329714
1,435,329246
1,436,328733
1,437,328486
1,438,328713
1,439,328150
1,440,328422
1,441,327582
1,442,327737
1,443,328061
1,444,327099
1,445,327019
1,446,327106
1,447,326896
1,448,326467
1,449,326597
1,450,326092
1,451,326123
1,452,326238
1,453,325176
1,454,326070
1,455,325247
1,456,325005
1,457,325354
1,458,324551
1,459,324915
1,460,324243
1,461,324040
1,462,323742
1,463,323739
1,464,322950
1,465,323490
1,466,323248
1,467,323062
1,468,322545
1,469,322173
1,470,322370
1,471,322036
1,472,321978
1,473,321749
1,474,321632
1,475,321224
1,476,320911
1,477,320638
1,478,320755
1,479,320684
1,480,320623
1,481,320336
1,482,319868
1,483,319690
1,484,319574
1,485,318707
1,486,318868
1,487,318352
1,488,318056
1,489,317798
1,490,317860
1,491,318085
1,492,317397
1,493,317137
1,494,316757
1,495,317140
1,496,316724
1,497,315962
1,498,315812
1,499,316526
1,500,315659
1,501,315639
1,502,315323
1,503,314876
1,504,314630
1,505,314957
1,506,314195
1,507,313859
1,508,313874
1,509,313815
1,510,313780
1,511,313814
1,512,313453
1,513,313294
1,514,312541
1,515,312822
1,516,312050
1,517,311739
1,518,311696
1,519,311531
1,520,311603
1,521,310821
1,522,310653
1,523,310768
1,524,310791
1,525,309953
1,526,310232
1,527,309957
1,528,309369
1,529,309103
1,530,309175
1,531,309033
1,532,308493
1,533,308430
1,534,308228
1,535,307907
1,536,307476
1,537,307434
1,538,307256
1,539,306584
1,540,306596
1,541,306185
1,542,305914
1,543,306248
1,544,305561
1,545,305476
1,546,305306
1,547,304803
1,548,304552
1,549,304055
1,550,303779
1,551,303800
1,552,303699
1,553,303542
1,554,303383
1,555,302840
1,556,302699
1,557,302627
1,558,301917
1,559,302056
1,560,302101
1,561,300820
1,562,301149
1,563,301241
1,564,300935
1,565,300698
1,566,299762
1,567,299539
1,568,299433
1,569,299534
1,570,299329
1,571,299081
1,572,299032
1,573,298560
1,574,298232
1,575,298138
1,576,298322
1,577,297536
1,578,297294
1,579,296957
1,580,296559
1,581,296612
1,582,296099
1,583,296170
1,584,296305
1,585,295723
1,586,295668
1,587,294954
1,588,294785
1,589,294549
1,590,294353
1,591,294140
1,592,294011
1,593,293859
1,594,293481
1,595,293074
1,596,292755
1,597,292824
1,598,292188
1,599,292166
1,600,291624
1,601,291699
1,602,291195
1,603,291079
1,604,290679
1,605,290441
1,606,290038
1,607,289771
1,608,289965
1,609,290242
1,610,289548
1,611,289615
1,612,289186
1,613,288665
1,614,288177
1,615,287722
1,616,287436
1,617,287309
1,618,287279
1,619,286534
1,620,286601
1,621,286308
1,622,286547
1,623,286062
1,624,285959
1,625,285411
1,626,285633
1,627,285211
1,628,284785
1,629,284681
1,630,284118
1,631,283912
1,632,283539
1,633,283522
1,634,283294
1,635,282850
1,636,282816
1,637,282120
1,638,282094
1,639,281920
1,640,281340
1,641,280818
1,642,280847
1,643,280772
1,644,280311
1,645,280625
1,646,280353
1,647,279680
1,648,279723
1,649,279266
1,650,279416
1,651,278846
1,652,278526
1,653,278089
1,654,278316
1,655,277931
1,656,277777
1,657,277730
1,658,277102
1,659,276971
1,660,276935
1,661,276728
1,662,276066
1,663,275324
1,664,275670
1,665,274957
1,666,274900
1,667,274331
1,668,274174
1,669,273774
1,670,273519
1,671,273416
1,672,273324
1,673,272806
1,674,272127
1,675,272631
1,676,272022
1,677,271926
1,678,271404
1,679,271495
1,680,270749
1,681,270941
1,682,270362
1,683,270608
1,684,269930
1,685,269914
1,686,269306
1,687,269311
1,688,268732
1,689,268524
1,690,268364
1,691,268269
1,692,268055
1,693,267494
1,694,266957
1,695,266973
1,696,266440
1,697,266080
1,698,265919
1,699,265827
1,700,265952
1,701,265385
1,702,264719
1,703,264852
1,704,264734
1,705,264164
1,706,263857
1,707,263418
1,708,263633
1,709,263057
1,710,262696
1,711,262292
1,712,262073
1,713,261870
1,714,261600
1,715,261404
1,716,261401
1,717,260569
1,718,260387
1,719,260120
1,720,259806
1,721,259626
1,722,259119
1,723,258893
1,724,258833
1,725,258383
1,726,258350
1,727,258217
1,728,257778
1,729,257384
1,730,256844
1,731,256908
1,732,257078
1,733,256606
1,734,255861
1,735,255934
1,736,255529
1,737,254943
1,738,254797
1,739,254342
1,740,254326
1,741,254043
1,742,253490
1,743,253220
1,744,252954
1,745,252667
1,746,252533
1,747,252117
1,748,251779
1,749,251843
1,750,251571
1,751,251320
1,752,250885
1,753,250289
1,754,250132
1,755,250024
1,756,249874
1,757,249413
1,758,249263
1,759,249213
1,760,248854
1,761,248441
1,762,248017
1,763,247741
1,764,247367
1,765,247346
1,766,246717
1,767,246803
1,768,246479
1,769,246106
1,770,245942
1,771,244883
1,772,245054
1,773,245069
1,774,244218
1,775,244599
1,776,243930
1,777,243931
1,778,243773
1,779,243306
1,780,242770
1,781,242782
1,782,242440
1,783,242167
1,784,242236
1,785,241365
1,786,241293
1,787,240867
1,788,240479
1,789,240320
1,790,239827
1,791,239770
1,792,239461
1,793,239146
1,794,239128
1,795,238325
1,796,238001
1,797,238117
1,798,237618
1,799,237284
1,800,237459
1,801,237079
1,802,236458
1,803,236494
1,804,236157
1,805,236149
1,806,235673
1,807,235311
1,808,234783
1,809,234990
1,810,234259
1,811,234408
1,812,234097
1,813,234008
1,814,233443
1,815,232912
1,816,232855
1,817,232508
1,818,232156
1,819,231759
1,820,231819
1,821,231156
1,822,230864
1,823,231059
1,824,230473
1,825,230072
1,826,230264
1,827,229387
1,828,229751
1,829,229120
1,830,228635
1,831,228677
1,832,228059
1,833,228030
1,834,227885
1,835,227580
1,836,227264
1,837,226780
1,838,226496
1,839,226229
1,840,226115
1,841,226093
1,842,225698
1,843,225374
1,844,225157
1,845,224708
1,846,224280
1,847,223841
1,848,223852
1,849,223530
1,850,223083
1,851,222979
1,852,222929
1,853,222467
1,854,221639
1,855,221587
1,856,221589
1,857,221053
1,858,221141
1,859,220806
1,860,220195
1,861,220295
1,862,219911
1,863,219263
1,864,219141
1,865,218736
1,866,218719
1,867,218733
1,868,218202
1,869,217902
1,870,217751
1,871,217494
1,872,216941
1,873,216595
1,874,216287
1,875,215964
1,876,215655
1,877,215624
1,878,215356
1,879,215059
1,880,214604
1,881,214327
1,882,213970
1,883,213573
1,884,213502
1,885,213353
1,886,212482
1,887,212571
1,888,212243
1,889,211855
1,890,211822
1,891,211439
1,892,211320
1,893,211436
1,894,210296
1,895,210355
1,896,210188
1,897,209365
1,898,209404
1,899,208852
1,900,209011
1,901,208893
1,902,208402
1,903,208019
1,904,207642
1,905,207616
1,906,207112
1,907,207126
1,908,206703
1,909,206216
1,910,206426
1,911,205681
1,912,205298
1,913,205130
1,914,204891
1,915,204726
1,916,204412
1,917,203989
1,918,203764
1,919,203512
1,920,203265
1,921,202956
1,922,202447
1,923,202277
1,924,201531
1,925,201666
1,926,201371
1,927,200907
1,928,200862
1,929,200555
1,930,200157
1,931,200181
1,932,199596
1,933,199778
1,934,199262
1,935,198932
1,936,198544
1,937,198226
1,938,198509
1,939,197562
1,940,197514
1,941,197343
1,942,196974
1,943,196884
1,944,196675
1,945,195946
1,946,195799
1,947,195295
1,948,195017
1,949,194783
1,950,194285
1,951,194470
1,952,194118
1,953,193684
1,954,193667
1,955,193471
1,956,192883
1,957,192482
1,958,192571
1,959,191958
1,960,191778
1,961,191554
1,962,191365
1,963,191155
1,964,190835
1,965,190652
1,966,190093
1,967,190020
1,968,189879
1,969,189157
1,970,189417
1,971,189154
1,972,188565
1,973,188278
1,974,188317
1,975,187507
1,976,187502
1,977,186896
1,978,186756
1,979,186991
1,980,186621
1,981,186010
1,982,185790
1,983,185302
1,984,185504
1,985,185115
1,986,184900
1,987,184229
1,988,184259
1,989,184109
1,990,183918
1,991,183401
1,992,183362
1,993,183014
1,994,182757
1,995,182683
1,996,182287
1,997,181812
1,998,181391
1,999,181516
1,1000,180842
1,1001,180668
1,1002,180199
1,1003,180170
1,1004,180000
1,1005,179566
1,1006,179181
1,1007,179034
1,1008,178730
1,1009,178593
1,1010,178539
1,1011,177970
1,1012,177783
1,1013,177660
1,1014,177201
1,1015,177415
1,1016,176791
1,1017,176764
1,1018,176540
1,1019,176190
1,1020,175965
1,1021,175308
1,1022,175091
1,1023,175013
1,1024,174696
1,1025,174325
1,1026,174413
1,1027,173788
1,1028,173432
1,1029,173144
1,1030,172970
1,1031,172774
1,1032,172483
1,1033,171975
1,1034,172283
1,1035,171631
1,1036,171056
1,1037,171340
1,1038,171051
1,1039,170644
1,1040,170651
1,1041,169783
1,1042,169895
1,1043,169588
1,1044,169120
1,1045,168861
1,1046,168865
1,1047,168552
1,1048,168562
1,1049,168006
1,1050,167943
1,1051,167415
1,1052,167224
1,1053,167073
1,1054,166873
1,1055,166893
1,1056,166430
1,1057,166106
1,1058,165847
1,1059,165678
1,1060,165277
1,1061,165025
1,1062,164923
1,1063,164679
1,1064,164472
1,1065,164221
1,1066,164208
1,1067,163660
1,1068,163539
1,1069,162861
1,1070,162788
1,1071,162383
1,1072,161963
1,1073,162259
1,1074,162147
1,1075,161377
1,1076,161321
1,1077,160946
1,1078,160533
1,1079,160239
1,1080,160210
1,1081,160006
1,1082,159656
1,1083,159593
1,1084,159078
1,1085,159052
1,1086,158801
1,1087,158658
1,1088,158283
1,1089,157939
1,1090,158057
1,1091,157503
1,1092,157163
1,1093,157316
1,1094,156724
1,1095,156675
1,1096,156407
1,1097,156181
1,1098,155789
1,1099,155525
1,1100,155572
1,1101,155319
1,1102,154873
1,1103,154655
1,1104,154525
1,1105,154157
1,1106,154007
1,1107,153656
1,1108,153392
1,1109,153022
1,1110,152879
1,1111,153008
1,1112,152509
1,1113,152343
1,1114,151842
1,1115,151593
1,1116,151448
1,1117,151361
1,1118,151062
1,1119,150789
1,1120,150603
1,1121,150249
1,1122,150225
1,1123,149926
1,1124,149699
1,1125,149270
1,1126,149196
1,1127,149004
1,1128,148595
1,1129,148540
1,1130,148208
1,1131,148104
1,1132,147686
1,1133,147743
1,1134,147610
1,1135,147332
1,1136,147191
1,1137,146730
1,1138,146517
1,1139,146272
1,1140,145851
1,1141,145910
1,1142,145534
1,1143,145667
1,1144,145076
1,1145,144836
1,1146,144564
1,1147,144432
1,1148,144159
1,1149,144179
1,1150,143736
1,1151,143790
1,1152,143234
1,1153,142997
1,1154,142771
1,1155,142739
1,1156,142565
1,1157,142078
1,1158,141985
1,1159,141989
1,1160,141552
1,1161,141264
1,1162,141211
1,1163,141068
1,1164,140704
1,1165,140721
1,1166,140395
1,1167,140229
1,1168,139857
1,1169,139472
1,1170,139369
1,1171,139205
1,1172,138789
1,1173,138950
1,1174,138881
1,1175,138599
1,1176,138459
1,1177,137851
1,1178,137929
1,1179,137594
1,1180,137426
1,1181,136902
1,1182,136867
1,1183,136577
1,1184,136342
1,1185,136228
1,1186,136076
1,1187,135900
1,1188,135609
1,1189,135606
1,1190,135294
1,1191,134911
1,1192,134763
1,1193,134558
1,1194,134401
1,1195,134115
1,1196,133869
1,1197,133708
1,1198,133391
1,1199,133340
1,1200,133205
1,1201,132871
1,1202,132807
1,1203,132680
1,1204,132323
1,1205,132153
1,1206,131846
1,1207,131781
1,1208,131656
1,1209,131186
1,1210,131252
1,1211,130946
1,1212,130609
1,1213,130746
1,1214,130471
1,1215,130445
1,1216,129843
1,1217,129874
1,1218,129579
1,1219,129353
1,1220,129214
1,1221,129109
1,1222,128732
1,1223,128808
1,1224,128524
1,1225,128106
1,1226,128107
1,1227,127617
1,1228,127680
1,1229,127356
1,1230,127261
1,1231,126764
1,1232,126849
1,1233,126505
1,1234,126277
1,1235,126420
1,1236,126093
1,1237,125732
1,1238,125367
1,1239,125142
1,1240,124903
1,1241,124698
1,1242,124617
1,1243,124226
1,1244,124135
1,1245,123953
1,1246,123585
1,1247,123395
1,1248,123337
1,1249,122864
1,1250,122829
1,1251,122602
1,1252,122221
1,1253,122028
1,1254,121957
1,1255,121560
1,1256,121055
1,1257,121196
1,1258,120745
1,1259,120479
1,1260,120271
1,1261,120024
1,1262,119939
1,1263,119771
1,1264,119296
1,1265,119070
1,1266,118918
1,1267,118685
1,1268,118480
1,1269,117792
1,1270,117813
1,1271,117625
1,1272,117664
1,1273,116789
1,1274,116911
1,1275,116314
1,1276,116162
1,1277,115951
1,1278,115508
1,1279,115486
1,1280,115051
1,1281,114497
1,1282,114269
1,1283,113868
1,1284,113910
1,1285,113564
1,1286,113298
1,1287,113047
1,1288,112525
1,1289,112258
1,1290,111969
1,1291,111733
1,1292,111286
1,1293,110993
1,1294,110599
1,1295,110521
1,1296,110095
1,1297,109603
1,1298,109461
1,1299,109178
1,1300,108719
1,1301,108655
1,1302,108426
1,1303,107699
1,1304,107616
1,1305,107282
1,1306,106753
1,1307,106550
1,1308,106207
1,1309,105925
1,1310,105577
1,1311,105419
1,1312,105102
1,1313,104679
1,1314,104364
1,1315,104015
1,1316,103740
1,1317,103444
1,1318,103233
1,1319,102713
1,1320,102352
1,1321,102129
1,1322,101833
1,1323,101467
1,1324,101161
1,1325,100694
1,1326,100613
1,1327,100180
1,1328,99897
1,1329,99397
1,1330,99309
1,1331,98832
1,1332,98657
1,1333,98284
1,1334,97881
1,1335,97670
1,1336,97292
1,1337,97115
1,1338,96577
1,1339,96035
1,1340,104081
