1,1,61631
1,2,61650
1,3,61637
1,4,61649
1,5,61632
1,6,61657
1,7,61663
1,8,61545
1,9,61628
1,10,61627
1,11,61633
1,12,61620
1,13,61625
1,14,61623
1,15,61588
1,16,61602
1,17,61638
1,18,61637
1,19,61648
1,20,61637
1,21,61594
1,22,61631
1,23,61656
1,24,61659
1,25,61629
1,26,61624
1,27,61638
1,28,61663
1,29,61613
1,30,61648
1,31,61672
1,32,61656
1,33,61660
1,34,61629
1,35,61632
1,36,61635
1,37,61638
1,38,61635
1,39,61634
1,40,61621
1,41,61598
1,42,61619
1,43,61663
1,44,61654
1,45,61652
1,46,61633
1,47,61643
1,48,61644
1,49,61630
1,50,61631
1,51,61585
1,52,61652
1,53,61647
1,54,61583
1,55,61671
1,56,61647
1,57,61672
1,58,61654
1,59,61668
1,60,61664
1,61,61658
1,62,61653
1,63,61664
1,64,61645
1,65,61629
1,66,61668
1,67,61657
1,68,61616
1,69,61631
1,70,61625
1,71,61633
1,72,61656
1,73,61630
1,74,61626
1,75,61620
1,76,61600
1,77,61650
1,78,61613
1,79,61624
1,80,61662
1,81,61665
1,82,61661
1,83,61622
1,84,61649
1,85,61631
1,86,61637
1,87,61686
1,88,61655
1,89,61634
1,90,61659
1,91,61626
1,92,61602
1,93,61656
1,94,61661
1,95,61660
1,96,61678
1,97,61651
1,98,61637
1,99,61640
1,100,61633
1,101,61653
1,102,61638
1,103,61643
1,104,61633
1,105,61630
1,106,61630
1,107,61612
1,108,61631
1,109,61621
1,110,61639
1,111,61636
1,112,61648
1,113,61665
1,114,61628
1,115,61659
1,116,61632
1,117,61643
1,118,61642
1,119,61598
1,120,61642
1,121,61645
1,122,61630
1,123,61636
1,124,61621
1,125,61642
1,126,61593
1,127,61637
1,128,61627
1,129,61628
1,130,61630
1,131,61674
1,132,61649
1,133,61616
1,134,61606
1,135,61693
1,136,61621
1,137,61620
1,138,61642
1,139,61623
1,140,61618
1,141,61657
1,142,61639
1,143,61642
1,144,61665
1,145,61606
1,146,61636
1,147,61612
1,148,61694
1,149,61638
1,150,61660
1,151,61678
1,152,61645
1,153,61642
1,154,61634
1,155,61634
1,156,61626
1,157,61634
1,158,61659
1,159,61626
1,160,61609
1,161,61635
1,162,61597
1,163,61637
1,164,61612
1,165,61625
1,166,61633
1,167,61644
1,168,61682
1,169,61664
1,170,61591
1,171,61639
1,172,61625
1,173,61641
1,174,61658
1,175,61645
1,176,61646
1,177,61635
1,178,61657
1,179,61602
1,180,61642
1,181,61611
1,182,61630
1,183,61657
1,184,61634
1,185,61649
1,186,61652
1,187,61643
1,188,61649
1,189,61619
1,190,61601
1,191,61680
1,192,61645
1,193,61647
1,194,61610
1,195,61643
1,196,61664
1,197,61668
1,198,61656
1,199,61613
1,200,61623
1,201,61649
1,202,61593
1,203,61623
1,204,61653
1,205,61612
1,206,61633
1,207,61636
1,208,61640
1,209,61631
1,210,61627
1,211,61634
1,212,61673
1,213,61641
1,214,61673
1,215,61630
1,216,61683
1,217,61689
1,218,61627
1,219,61622
1,220,61600
1,221,61630
1,222,61681
1,223,61677
1,224,61659
1,225,61637
1,226,61654
1,227,61662
1,228,61629
1,229,61625
1,230,61600
1,231,61640
1,232,61650
1,233,61602
1,234,61676
1,235,61650
1,236,61650
1,237,61628
1,238,61676
1,239,61661
1,240,61633
1,241,61644
1,242,61660
1,243,61629
1,244,61652
1,245,61654
1,246,61664
1,247,61679
1,248,61626
1,249,61683
1,250,61590
1,251,61672
1,252,61629
1,253,61679
1,254,61677
1,255,61625
1,256,61583
1,257,61622
1,258,61646
1,259,61603
1,260,61650
1,261,61643
1,262,61644
1,263,61629
1,264,61653
1,265,61666
1,266,61637
1,267,61629
1,268,61635
1,269,61662
1,270,61640
1,271,61660
1,272,61623
1,273,61620
1,274,61659
1,275,61670
1,276,61652
1,277,61606
1,278,61642
1,279,61634
1,280,61647
1,281,61595
1,282,61619
1,283,61620
1,284,61625
1,285,61611
1,286,61642
1,287,61620
1,288,61650
1,289,61616
1,290,61600
1,291,61634
1,292,61599
1,293,61622
1,294,61646
1,295,61676
1,296,61661
1,297,61610
1,298,61585
1,299,61645
1,300,61614
1,301,61623
1,302,61655
1,303,61621
1,304,61625
1,305,61635
1,306,61635
1,307,61621
1,308,61640
1,309,61660
1,310,61675
1,311,61608
1,312,61619
1,313,61627
1,314,61643
1,315,61655
1,316,61622
1,317,61609
1,318,61640
1,319,61644
1,320,61643
1,321,61633
1,322,61669
1,323,61642
1,324,61626
1,325,61644
1,326,61667
1,327,61608
1,328,61599
1,329,61691
1,330,61633
1,331,61660
1,332,61661
1,333,61643
1,334,61657
1,335,61618
1,336,61643
1,337,61645
1,338,61646
1,339,61659
1,340,61627
1,341,61615
1,342,61630
1,343,61669
1,344,61635
1,345,61602
1,346,61626
1,347,61655
1,348,61705
1,349,61626
1,350,61632
1,351,61619
1,352,61607
1,353,61644
1,354,61660
1,355,61641
1,356,61642
1,357,61628
1,358,61644
1,359,61656
1,360,61661
1,361,61649
1,362,61670
1,363,61664
1,364,61597
1,365,61631
1,366,61652
1,367,61678
1,368,61615
1,369,61630
1,370,61613
1,371,61615
1,372,61635
1,373,61620
1,374,61649
1,375,61667
1,376,61667
1,377,61679
1,378,61646
1,379,61644
1,380,61648
1,381,61645
1,382,61653
1,383,61643
1,384,61606
1,385,61639
1,386,61621
1,387,61614
1,388,61645
1,389,61627
1,390,61626
1,391,61678
1,392,61630
1,393,61630
1,394,61629
1,395,61654
1,396,61626
1,397,61628
1,398,61668
1,399,61655
1,400,61640
1,401,61659
1,402,61617
1,403,61607
1,404,61657
1,405,61650
1,406,61609
1,407,61646
1,408,61678
1,409,61638
1,410,61669
1,411,61618
1,412,61649
1,413,61650
1,414,61653
1,415,61608
1,416,61650
1,417,61613
1,418,61635
1,419,61621
1,420,61629
1,421,61632
1,422,61658
1,423,61640
1,424,61638
1,425,61649
1,426,61633
1,427,61644
1,428,61636
1,429,61627
1,430,61642
1,431,61675
1,432,61682
1,433,61620
1,434,61656
1,435,61682
1,436,61632
1,437,61628
1,438,61621
1,439,61641
1,440,61664
1,441,61601
1,442,61643
1,443,61630
1,444,61637
1,445,61641
1,446,61649
1,447,61658
1,448,61638
1,449,61617
1,450,61673
1,451,61650
1,452,61635
1,453,61647
1,454,61620
1,455,61631
1,456,61638
1,457,61645
1,458,61649
1,459,61652
1,460,61658
1,461,61627
1,462,61635
1,463,61652
1,464,61605
1,465,61616
1,466,61649
1,467,61629
1,468,61640
1,469,61613
1,470,61617
1,471,61642
1,472,61705
1,473,61679
1,474,61603
1,475,61632
1,476,61674
1,477,61626
1,478,61653
1,479,61636
1,480,61644
1,481,61659
1,482,61650
1,483,61665
1,484,61614
1,485,61586
1,486,61608
1,487,61679
1,488,61615
1,489,61606
1,490,61646
1,491,61633
1,492,61668
1,493,61597
1,494,61622
1,495,61635
1,496,61628
1,497,61624
1,498,61622
1,499,61656
1,500,61645
1,501,61624
1,502,61630
1,503,61653
1,504,61676
1,505,61602
1,506,61661
1,507,61668
1,508,61647
1,509,61642
1,510,61649
1,511,61639
1,512,61603
1,513,61621
1,514,61652
1,515,61656
1,516,61641
1,517,61676
1,518,61629
1,519,61605
1,520,61620
1,521,61581
1,522,61644
1,523,61671
1,524,61623
1,525,61646
1,526,61628
1,527,61634
1,528,61656
1,529,61626
1,530,61617
1,531,61620
1,532,61635
1,533,61617
1,534,61599
1,535,61647
1,536,61614
1,537,61645
1,538,61647
1,539,61676
1,540,61638
1,541,61628
1,542,61615
1,543,61632
1,544,61626
1,545,61614
1,546,61652
1,547,61619
1,548,61647
1,549,61667
1,550,61644
1,551,61682
1,552,61636
1,553,61675
1,554,61619
1,555,61633
1,556,61653
1,557,61643
1,558,61610
1,559,61669
1,560,61666
1,561,61655
1,562,61612
1,563,61635
1,564,61598
1,565,61647
1,566,61628
1,567,61616
1,568,61621
1,569,61636
1,570,61680
1,571,61626
1,572,61619
1,573,61643
1,574,61652
1,575,61625
1,576,61693
1,577,61651
1,578,61620
1,579,61634
1,580,61636
1,581,61653
1,582,61615
1,583,61592
1,584,61653
1,585,61638
1,586,61653
1,587,61640
1,588,61635
1,589,61580
1,590,61665
1,591,61619
1,592,61662
1,593,61625
1,594,61617
1,595,61624
1,596,61650
1,597,61625
1,598,61637
1,599,61647
1,600,61604
1,601,61623
1,602,61624
1,603,61599
1,604,61627
1,605,61619
1,606,61617
1,607,61660
1,608,61636
1,609,61638
1,610,61627
1,611,61611
1,612,61631
1,613,61663
1,614,61653
1,615,61625
1,616,61641
1,617,61599
1,618,61640
1,619,61598
1,620,61680
1,621,61612
1,622,61626
1,623,61635
1,624,61618
1,625,61620
1,626,61641
1,627,61612
1,628,61636
1,629,61625
1,630,61611
1,631,61666
1,632,61638
1,633,61664
1,634,61627
1,635,61635
1,636,61612
1,637,61672
1,638,61710
1,639,61645
1,640,61633
1,641,61663
1,642,61639
1,643,61683
1,644,61648
1,645,61653
1,646,61607
1,647,61629
1,648,61657
1,649,61661
1,650,61650
1,651,61645
1,652,61624
1,653,61634
1,654,61635
1,655,61651
1,656,61666
1,657,61627
1,658,61628
1,659,61666
1,660,61684
1,661,61660
1,662,61636
1,663,61666
1,664,61636
1,665,61633
1,666,61646
1,667,61613
1,668,61634
1,669,61622
1,670,61660
1,671,61652
1,672,61666
1,673,61641
1,674,61674
1,675,61617
1,676,61628
1,677,61652
1,678,61639
1,679,61616
1,680,61645
1,681,61686
1,682,61667
1,683,61630
1,684,61634
1,685,61611
1,686,61652
1,687,61692
1,688,61647
1,689,61656
1,690,61632
1,691,61663
1,692,61639
1,693,61655
1,694,61665
1,695,61651
1,696,61626
1,697,61667
1,698,61630
1,699,61618
1,700,61653
1,701,61633
1,702,61691
1,703,61650
1,704,61646
1,705,61642
1,706,61675
1,707,61657
1,708,61654
1,709,61621
1,710,61620
1,711,61660
1,712,61663
1,713,61612
1,714,61664
1,715,61586
1,716,61619
1,717,61657
1,718,61629
1,719,61626
1,720,61671
1,721,61591
1,722,61666
1,723,61662
1,724,61652
1,725,61619
1,726,61610
1,727,61682
1,728,61607
1,729,61624
1,730,61648
1,731,61663
1,732,61638
1,733,61678
1,734,61665
1,735,61646
1,736,61665
1,737,61646
1,738,61648
1,739,61617
1,740,61629
1,741,61646
1,742,61661
1,743,61624
1,744,61630
1,745,61587
1,746,61644
1,747,61652
1,748,61643
1,749,61694
1,750,61634
1,751,61597
1,752,61612
1,753,61665
1,754,61670
1,755,61656
1,756,61635
1,757,61683
1,758,61650
1,759,61689
1,760,61641
1,761,61644
1,762,61606
1,763,61653
1,764,61632
1,765,61662
1,766,61630
1,767,61631
1,768,61679
1,769,61649
1,770,61675
1,771,61666
1,772,61661
1,773,61648
1,774,61590
1,775,61652
1,776,61618
1,777,61641
1,778,61649
1,779,61652
1,780,61681
1,781,61673
1,782,61635
1,783,61612
1,784,61646
1,785,61643
1,786,61670
1,787,61640
1,788,61633
1,789,61610
1,790,61616
1,791,61618
1,792,61664
1,793,61667
1,794,61620
1,795,61622
1,796,61647
1,797,61656
1,798,61624
1,799,61668
1,800,61628
1,801,61622
1,802,61661
1,803,61667
1,804,61644
1,805,61654
1,806,61637
1,807,61677
1,808,61636
1,809,61624
1,810,61647
1,811,61620
1,812,61637
1,813,61644
1,814,61644
1,815,61594
1,816,61675
1,817,61685
1,818,61642
1,819,61623
1,820,61642
1,821,61615
1,822,61648
1,823,61655
1,824,61624
1,825,61632
1,826,61634
1,827,61665
1,828,61631
1,829,61662
1,830,61635
1,831,61644
1,832,61648
1,833,61651
1,834,61667
1,835,61616
1,836,61639
1,837,61633
1,838,61648
1,839,61655
1,840,61648
1,841,61658
1,842,61659
1,843,61666
1,844,61621
1,845,61619
1,846,61631
1,847,61644
1,848,61655
1,849,61661
1,850,61623
1,851,61641
1,852,61630
1,853,61623
1,854,61632
1,855,61648
1,856,61616
1,857,61629
1,858,61646
1,859,61632
1,860,61666
1,861,61644
1,862,61667
1,863,61619
1,864,61615
1,865,61612
1,866,61662
1,867,61631
1,868,61618
1,869,61650
1,870,61656
1,871,61633
1,872,61668
1,873,61680
1,874,61630
1,875,61654
1,876,61661
1,877,61635
1,878,61640
1,879,61640
1,880,61637
1,881,61631
1,882,61645
1,883,61635
1,884,61675
1,885,61621
1,886,61657
1,887,61609
1,888,61645
1,889,61666
1,890,61606
1,891,61649
1,892,61661
1,893,61654
1,894,61661
1,895,61672
1,896,61637
1,897,61643
1,898,61633
1,899,61667
1,900,61648
1,901,61679
1,902,61642
1,903,61573
1,904,61639
1,905,61643
1,906,61631
1,907,61638
1,908,61654
1,909,61609
1,910,61650
1,911,61606
1,912,61622
1,913,61658
1,914,61638
1,915,61638
1,916,61676
1,917,61646
1,918,61682
1,919,61619
1,920,61637
1,921,61677
1,922,61640
1,923,61653
1,924,61628
1,925,61652
1,926,61630
1,927,61609
1,928,61621
1,929,61678
1,930,61654
1,931,61651
1,932,61640
1,933,61661
1,934,61653
1,935,61629
1,936,61623
1,937,61641
1,938,61651
1,939,61651
1,940,61633
1,941,61655
1,942,61665
1,943,61622
1,944,61616
1,945,61636
1,946,61654
1,947,61639
1,948,61679
1,949,61636
1,950,61653
1,951,61654
1,952,61632
1,953,61633
1,954,61633
1,955,61639
1,956,61632
1,957,61674
1,958,61640
1,959,61688
1,960,61672
1,961,61643
1,962,61676
1,963,61653
1,964,61702
1,965,61660
1,966,61654
1,967,61627
1,968,61645
1,969,61611
1,970,61623
1,971,61635
1,972,61613
1,973,61651
1,974,61615
1,975,61636
1,976,61652
1,977,61675
1,978,61661
1,979,61647
1,980,61623
1,981,61620
1,982,61672
1,983,61613
1,984,61610
1,985,61643
1,986,61647
1,987,61654
1,988,61651
1,989,61637
1,990,61618
1,991,61628
1,992,61621
1,993,61632
1,994,61637
1,995,61677
1,996,61640
1,997,61646
1,998,61607
1,999,61667
1,1000,61657
1,1001,61622
1,1002,61657
1,1003,61660
1,1004,61623
1,1005,61625
1,1006,61676
1,1007,61655
1,1008,61629
1,1009,61646
1,1010,61651
1,1011,61651
1,1012,61663
1,1013,61642
1,1014,61664
1,1015,61634
1,1016,61673
1,1017,61691
1,1018,61685
1,1019,61657
1,1020,61697
1,1021,61656
1,1022,61674
1,1023,61657
1,1024,61664
1,1025,61645
1,1026,61660
1,1027,61679
1,1028,61673
1,1029,61634
1,1030,61617
1,1031,61643
1,1032,61647
1,1033,61679
1,1034,61649
1,1035,61642
1,1036,61591
1,1037,61691
1,1038,61664
1,1039,61699
1,1040,61676
1,1041,61656
1,1042,61630
1,1043,61622
1,1044,61657
1,1045,61648
1,1046,61676
1,1047,61638
1,1048,61698
1,1049,61665
1,1050,61681
1,1051,61653
1,1052,61652
1,1053,61655
1,1054,61633
1,1055,61621
1,1056,61653
1,1057,61649
1,1058,61651
1,1059,61652
1,1060,61597
1,1061,61627
1,1062,61662
1,1063,61661
1,1064,61686
1,1065,61681
1,1066,61622
1,1067,61628
1,1068,61664
1,1069,61604
1,1070,61700
1,1071,61666
1,1072,61626
1,1073,61695
1,1074,61671
1,1075,61669
1,1076,61652
1,1077,61669
1,1078,61647
1,1079,61633
1,1080,61659
1,1081,61637
1,1082,61662
1,1083,61665
1,1084,61676
1,1085,61705
1,1086,61631
1,1087,61711
1,1088,61659
1,1089,61625
1,1090,61654
1,1091,61687
1,1092,61651
1,1093,61650
1,1094,61653
1,1095,61633
1,1096,61643
1,1097,61643
1,1098,61639
1,1099,61615
1,1100,61669
1,1101,61623
1,1102,61678
1,1103,61616
1,1104,61662
1,1105,61661
1,1106,61653
1,1107,61654
1,1108,61645
1,1109,61639
1,1110,61688
1,1111,61660
1,1112,61607
1,1113,61662
1,1114,61656
1,1115,61639
1,1116,61621
1,1117,61680
1,1118,61642
1,1119,61631
1,1120,61657
1,1121,61678
1,1122,61646
1,1123,61645
1,1124,61621
1,1125,61691
1,1126,61674
1,1127,61634
1,1128,61697
1,1129,61676
1,1130,61666
1,1131,61635
1,1132,61659
1,1133,61671
1,1134,61638
1,1135,61687
1,1136,61653
1,1137,61652
1,1138,61686
1,1139,61664
1,1140,61659
1,1141,61673
1,1142,61663
1,1143,61667
1,1144,61651
1,1145,61662
1,1146,61667
1,1147,61667
1,1148,61661
1,1149,61671
1,1150,61684
1,1151,61672
1,1152,61617
1,1153,61654
1,1154,61677
1,1155,61630
1,1156,61656
1,1157,61672
1,1158,61643
1,1159,61665
1,1160,61653
1,1161,61665
1,1162,61684
1,1163,61722
1,1164,61653
1,1165,61671
1,1166,61665
1,1167,61686
1,1168,61648
1,1169,61634
1,1170,61685
1,1171,61653
1,1172,61698
1,1173,61679
1,1174,61640
1,1175,61662
1,1176,61675
1,1177,61662
1,1178,61646
1,1179,61615
1,1180,61669
1,1181,61613
1,1182,61695
1,1183,61681
1,1184,61626
1,1185,61684
1,1186,61668
1,1187,61631
1,1188,61668
1,1189,61659
1,1190,61654
1,1191,61695
1,1192,61661
1,1193,61637
1,1194,61681
1,1195,61671
1,1196,61652
1,1197,61665
1,1198,61678
1,1199,61646
1,1200,61678
1,1201,61649
1,1202,61677
1,1203,61650
1,1204,61672
1,1205,61659
1,1206,61673
1,1207,61703
1,1208,61679
1,1209,61665
1,1210,61658
1,1211,61652
1,1212,61646
1,1213,61672
1,1214,61668
1,1215,61645
1,1216,61635
1,1217,61651
1,1218,61677
1,1219,61660
1,1220,61682
1,1221,61680
1,1222,61701
1,1223,61662
1,1224,61696
1,1225,61689
1,1226,61696
1,1227,61700
1,1228,61742
1,1229,61687
1,1230,61692
1,1231,61703
1,1232,61712
1,1233,61680
1,1234,61703
1,1235,61698
1,1236,61692
1,1237,61716
1,1238,61686
1,1239,61669
1,1240,61733
1,1241,61714
1,1242,61728
1,1243,61718
1,1244,61706
1,1245,61687
1,1246,61695
1,1247,61676
1,1248,61738
1,1249,61699
1,1250,61725
1,1251,61760
1,1252,61719
1,1253,61751
1,1254,61720
1,1255,61751
1,1256,61719
1,1257,61694
1,1258,61722
1,1259,61772
1,1260,61751
1,1261,61732
1,1262,61723
1,1263,61746
1,1264,61723
1,1265,61719
1,1266,61746
1,1267,61728
1,1268,61694
1,1269,61735
1,1270,61739
1,1271,61731
1,1272,61749
1,1273,61725
1,1274,61689
1,1275,61764
1,1276,61722
1,1277,61776
1,1278,61737
1,1279,61752
1,1280,61749
1,1281,61757
1,1282,61769
1,1283,61753
1,1284,61741
1,1285,61756
1,1286,61771
1,1287,61767
1,1288,61741
1,1289,61737
1,1290,61735
1,1291,61773
1,1292,61746
1,1293,61762
1,1294,61768
1,1295,61744
1,1296,61735
1,1297,61718
1,1298,61789
1,1299,61753
1,1300,61755
1,1301,61761
1,1302,61754
1,1303,61729
1,1304,61744
1,1305,61727
1,1306,61766
1,1307,61757
1,1308,61738
1,1309,61705
1,1310,61775
1,1311,61776
1,1312,61756
1,1313,61766
1,1314,61731
1,1315,61708
1,1316,61753
1,1317,61771
1,1318,61736
1,1319,61760
1,1320,61751
1,1321,61759
1,1322,61772
1,1323,61773
1,1324,61741
1,1325,61752
1,1326,61720
1,1327,61726
1,1328,61733
1,1329,61715
1,1330,61728
1,1331,61725
1,1332,61718
1,1333,61643
1,1334,61686
1,1335,61659
1,1336,61623
1,1337,61650
1,1338,61578
1,1339,61319
1,1340,70045
