1,1,129134
1,2,130425
1,3,131665
1,4,132944
1,5,134370
1,6,135973
1,7,137207
1,8,138649
1,9,139973
1,10,141353
1,11,142741
1,12,144460
1,13,146247
1,14,147747
1,15,149092
1,16,150927
1,17,152556
1,18,154151
1,19,155995
1,20,157607
1,21,159480
1,22,161393
1,23,163024
1,24,164573
1,25,166557
1,26,168553
1,27,170454
1,28,172518
1,29,174497
1,30,176306
1,31,178725
1,32,181004
1,33,182832
1,34,184788
1,35,187127
1,36,189617
1,37,191547
1,38,193882
1,39,196334
1,40,198117
1,41,200750
1,42,203388
1,43,205727
1,44,208629
1,45,211329
1,46,213811
1,47,216557
1,48,219129
1,49,222127
1,50,224797
1,51,227634
1,52,230681
1,53,233178
1,54,236230
1,55,239794
1,56,243277
1,57,246188
1,58,249542
1,59,253135
1,60,256559
1,61,260245
1,62,264386
1,63,268283
1,64,271493
1,65,275574
1,66,279357
1,67,283553
1,68,287735
1,69,291240
1,70,295514
1,71,299234
1,72,302677
1,73,306513
1,74,309543
1,75,312149
1,76,313882
1,77,314862
1,78,313884
1,79,312254
1,80,309069
1,81,303875
1,82,296594
1,83,287184
1,84,276768
1,85,265804
1,86,253379
1,87,241789
1,88,230349
1,89,219116
1,90,208684
1,91,199982
1,92,192107
1,93,186399
1,94,182829
1,95,181533
1,96,182613
1,97,189445
1,98,204699
1,99,232049
1,100,282641
1,101,367112
1,102,486805
1,103,635312
1,104,786275
1,105,929427
1,106,1.01918e+006
1,107,1.02744e+006
1,108,957356
1,109,801860
1,110,612553
1,111,442426
1,112,299748
1,113,195082
1,114,155937
1,115,133224
1,116,122139
1,117,116005
1,118,111574
1,119,107424
1,120,103231
1,121,99449
1,122,95849
1,123,92109
1,124,88488
1,125,86170
1,126,84148
1,127,82557
1,128,81261
1,129,80390
1,130,79623
1,131,79348
1,132,78740
1,133,78441
1,134,78264
1,135,77850
1,136,77666
1,137,77532
1,138,77248
1,139,77137
1,140,77101
1,141,76880
1,142,76839
1,143,76835
1,144,76679
1,145,76729
1,146,76689
1,147,76764
1,148,76860
1,149,76823
1,150,76819
1,151,77009
1,152,76889
1,153,76958
1,154,77206
1,155,77134
1,156,77234
1,157,77393
1,158,77496
1,159,77752
1,160,77730
1,161,77928
1,162,78131
1,163,78224
1,164,78333
1,165,78671
1,166,78899
1,167,79122
1,168,79263
1,169,79478
1,170,79792
1,171,80171
1,172,80351
1,173,80704
1,174,81055
1,175,81415
1,176,81818
1,177,82018
1,178,82525
1,179,82841
1,180,83177
1,181,83505
1,182,84028
1,183,84453
1,184,84789
1,185,85175
1,186,85716
1,187,86223
1,188,86967
1,189,87787
1,190,88971
1,191,90364
1,192,92191
1,193,94999
1,194,98462
1,195,103172
1,196,108387
1,197,114988
1,198,123013
1,199,132500
1,200,145037
1,201,161293
1,202,181853
1,203,204270
1,204,228193
1,205,252502
1,206,277701
1,207,303812
1,208,334643
1,209,371878
1,210,414350
1,211,460626
1,212,506881
1,213,551928
1,214,593290
1,215,631265
1,216,670131
1,217,712838
1,218,762745
1,219,816751
1,220,873559
1,221,932192
1,222,984908
1,223,1.03097e+006
1,224,1.07194e+006
1,225,1.10886e+006
1,226,1.14639e+006
1,227,1.18581e+006
1,228,1.22958e+006
1,229,1.2781e+006
1,230,1.3328e+006
1,231,1.38063e+006
1,232,1.42617e+006
1,233,1.4661e+006
1,234,1.50082e+006
1,235,1.53416e+006
1,236,1.56795e+006
1,237,1.60186e+006
1,238,1.64306e+006
1,239,1.68727e+006
1,240,1.73579e+006
1,241,1.78192e+006
1,242,1.82656e+006
1,243,1.86681e+006
1,244,1.90486e+006
1,245,1.93565e+006
1,246,1.9696e+006
1,247,2.00325e+006
1,248,2.04355e+006
1,249,2.08616e+006
1,250,2.12946e+006
1,251,2.17429e+006
1,252,2.2164e+006
1,253,2.25957e+006
1,254,2.29662e+006
1,255,2.32853e+006
1,256,2.36325e+006
1,257,2.3956e+006
1,258,2.43233e+006
1,259,2.47309e+006
1,260,2.51352e+006
1,261,2.55589e+006
1,262,2.59541e+006
1,263,2.63613e+006
1,264,2.67313e+006
1,265,2.70732e+006
1,266,2.73837e+006
1,267,2.77311e+006
1,268,2.80401e+006
1,269,2.83878e+006
1,270,2.87595e+006
1,271,2.91523e+006
1,272,2.94856e+006
1,273,2.98667e+006
1,274,3.01441e+006
1,275,3.04865e+006
1,276,3.07957e+006
1,277,3.10905e+006
1,278,3.13777e+006
1,279,3.16853e+006
1,280,3.20043e+006
1,281,3.22955e+006
1,282,3.25851e+006
1,283,3.2843e+006
1,284,3.31388e+006
1,285,3.34655e+006
1,286,3.37223e+006
1,287,3.39474e+006
1,288,3.41732e+006
1,289,3.44845e+006
1,290,3.47201e+006
1,291,3.50066e+006
1,292,3.5306e+006
1,293,3.55286e+006
1,294,3.57784e+006
1,295,3.60043e+006
1,296,3.6201e+006
1,297,3.63694e+006
1,298,3.65614e+006
1,299,3.67725e+006
1,300,3.69287e+006
1,301,3.708e+006
1,302,3.72661e+006
1,303,3.74375e+006
1,304,3.75879e+006
1,305,3.77487e+006
1,306,3.78786e+006
1,307,3.79958e+006
1,308,3.81076e+006
1,309,3.82345e+006
1,310,3.83651e+006
1,311,3.84716e+006
1,312,3.86441e+006
1,313,3.87488e+006
1,314,3.88829e+006
1,315,3.90063e+006
1,316,3.91199e+006
1,317,3.92251e+006
1,318,3.93383e+006
1,319,3.94466e+006
1,320,3.95342e+006
1,321,3.96468e+006
1,322,3.97485e+006
1,323,3.98553e+006
1,324,3.99856e+006
1,325,4.0071e+006
1,326,4.01625e+006
1,327,4.02454e+006
1,328,4.03597e+006
1,329,4.04488e+006
1,330,4.05587e+006
1,331,4.06499e+006
1,332,4.07512e+006
1,333,4.08276e+006
1,334,4.09161e+006
1,335,4.09722e+006
1,336,4.10802e+006
1,337,4.1167e+006
1,338,4.12373e+006
1,339,4.13185e+006
1,340,4.14214e+006
1,341,4.15273e+006
1,342,4.1605e+006
1,343,4.16846e+006
1,344,4.17708e+006
1,345,4.18438e+006
1,346,4.192e+006
1,347,4.20206e+006
1,348,4.21022e+006
1,349,4.2195e+006
1,350,4.22743e+006
1,351,4.23265e+006
1,352,4.2432e+006
1,353,4.25082e+006
1,354,4.25963e+006
1,355,4.26756e+006
1,356,4.27619e+006
1,357,4.28468e+006
1,358,4.29208e+006
1,359,4.29785e+006
1,360,4.30529e+006
1,361,4.31701e+006
1,362,4.32491e+006
1,363,4.33062e+006
1,364,4.34291e+006
1,365,4.35061e+006
1,366,4.35748e+006
1,367,4.36696e+006
1,368,4.37636e+006
1,369,4.38418e+006
1,370,4.39474e+006
1,371,4.40213e+006
1,372,4.41265e+006
1,373,4.42106e+006
1,374,4.43128e+006
1,375,4.43774e+006
1,376,4.44846e+006
1,377,4.45512e+006
1,378,4.46367e+006
1,379,4.47512e+006
1,380,4.48392e+006
1,381,4.48845e+006
1,382,4.49882e+006
1,383,4.50913e+006
1,384,4.51943e+006
1,385,4.52748e+006
1,386,4.53164e+006
1,387,4.54294e+006
1,388,4.55348e+006
1,389,4.56192e+006
1,390,4.57095e+006
1,391,4.58243e+006
1,392,4.59108e+006
1,393,4.60014e+006
1,394,4.60933e+006
1,395,4.61768e+006
1,396,4.62684e+006
1,397,4.63702e+006
1,398,4.64474e+006
1,399,4.65565e+006
1,400,4.66553e+006
1,401,4.67467e+006
1,402,4.6841e+006
1,403,4.69354e+006
1,404,4.70379e+006
1,405,4.71217e+006
1,406,4.72185e+006
1,407,4.72969e+006
1,408,4.74124e+006
1,409,4.75104e+006
1,410,4.7589e+006
1,411,4.76637e+006
1,412,4.77499e+006
1,413,4.78452e+006
1,414,4.79544e+006
1,415,4.80228e+006
1,416,4.81275e+006
1,417,4.82192e+006
1,418,4.82879e+006
1,419,4.83771e+006
1,420,4.84785e+006
1,421,4.85745e+006
1,422,4.86583e+006
1,423,4.87518e+006
1,424,4.88472e+006
1,425,4.89357e+006
1,426,4.90094e+006
1,427,4.90972e+006
1,428,4.91794e+006
1,429,4.9284e+006
1,430,4.9344e+006
1,431,4.94775e+006
1,432,4.95678e+006
1,433,4.96558e+006
1,434,4.97554e+006
1,435,4.98642e+006
1,436,4.99292e+006
1,437,4.99999e+006
1,438,5.01163e+006
1,439,5.02243e+006
1,440,5.03188e+006
1,441,5.0381e+006
1,442,5.05445e+006
1,443,5.06339e+006
1,444,5.06888e+006
1,445,5.08803e+006
1,446,5.09523e+006
1,447,5.10049e+006
1,448,5.10636e+006
1,449,5.1203e+006
1,450,5.13432e+006
1,451,5.1405e+006
1,452,5.1451e+006
1,453,5.14985e+006
1,454,5.16171e+006
1,455,5.17868e+006
1,456,5.18333e+006
1,457,5.19945e+006
1,458,5.19256e+006
1,459,5.21119e+006
1,460,5.22241e+006
1,461,5.23412e+006
1,462,5.25801e+006
1,463,5.26124e+006
1,464,5.26561e+006
1,465,5.27041e+006
1,466,5.27957e+006
1,467,5.28028e+006
1,468,5.30755e+006
1,469,5.31075e+006
1,470,5.31195e+006
1,471,5.31526e+006
1,472,5.32851e+006
1,473,5.32791e+006
1,474,5.35395e+006
1,475,5.3427e+006
1,476,5.35864e+006
1,477,5.35218e+006
1,478,5.36957e+006
1,479,5.36394e+006
1,480,5.37114e+006
1,481,5.37302e+006
1,482,5.37936e+006
1,483,5.39771e+006
1,484,5.40503e+006
1,485,5.37859e+006
1,486,5.40598e+006
1,487,5.41001e+006
1,488,5.41114e+006
1,489,5.42341e+006
1,490,5.4509e+006
1,491,5.43534e+006
1,492,5.44996e+006
1,493,5.45082e+006
1,494,5.45278e+006
1,495,5.45499e+006
1,496,5.45439e+006
1,497,5.45592e+006
1,498,5.44791e+006
1,499,5.4774e+006
1,500,5.45923e+006
1,501,5.45882e+006
1,502,5.46076e+006
1,503,5.46173e+006
1,504,5.46214e+006
1,505,5.45887e+006
1,506,5.46727e+006
1,507,5.49924e+006
1,508,5.47093e+006
1,509,5.5006e+006
1,510,5.47637e+006
1,511,5.49905e+006
1,512,5.49985e+006
1,513,5.50182e+006
1,514,5.52526e+006
1,515,5.50258e+006
1,516,5.50272e+006
1,517,5.50238e+006
1,518,5.50313e+006
1,519,5.50153e+006
1,520,5.50271e+006
1,521,5.50184e+006
1,522,5.50058e+006
1,523,5.50214e+006
1,524,5.50443e+006
1,525,5.53951e+006
1,526,5.5067e+006
1,527,5.50434e+006
1,528,5.50517e+006
1,529,5.54046e+006
1,530,5.50314e+006
1,531,5.54047e+006
1,532,5.55332e+006
1,533,5.49939e+006
1,534,5.50293e+006
1,535,5.53804e+006
1,536,5.54319e+006
1,537,5.5405e+006
1,538,5.53084e+006
1,539,5.53736e+006
1,540,5.56481e+006
1,541,5.53871e+006
1,542,5.58262e+006
1,543,5.55569e+006
1,544,5.57306e+006
1,545,5.57431e+006
1,546,5.57654e+006
1,547,5.61465e+006
1,548,5.5596e+006
1,549,5.57226e+006
1,550,5.55618e+006
1,551,5.59551e+006
1,552,5.53024e+006
1,553,5.53153e+006
1,554,5.5571e+006
1,555,5.61204e+006
1,556,5.58656e+006
1,557,5.56663e+006
1,558,5.55243e+006
1,559,5.57179e+006
1,560,5.59131e+006
1,561,5.57931e+006
1,562,5.59619e+006
1,563,5.58736e+006
1,564,5.58531e+006
1,565,5.61234e+006
1,566,5.56138e+006
1,567,5.55845e+006
1,568,5.5608e+006
1,569,5.58985e+006
1,570,5.57694e+006
1,571,5.56067e+006
1,572,5.55635e+006
1,573,5.57831e+006
1,574,5.57007e+006
1,575,5.57052e+006
1,576,5.55617e+006
1,577,5.60617e+006
1,578,5.58376e+006
1,579,5.56337e+006
1,580,5.55249e+006
1,581,5.62468e+006
1,582,5.63037e+006
1,583,5.58365e+006
1,584,5.54404e+006
1,585,5.55734e+006
1,586,5.58111e+006
1,587,5.54441e+006
1,588,5.60995e+006
1,589,5.59464e+006
1,590,5.53705e+006
1,591,5.57701e+006
1,592,5.57727e+006
1,593,5.61801e+006
1,594,5.57357e+006
1,595,5.61266e+006
1,596,5.59601e+006
1,597,5.53691e+006
1,598,5.54706e+006
1,599,5.59056e+006
1,600,5.52906e+006
1,601,5.5638e+006
1,602,5.60217e+006
1,603,5.55733e+006
1,604,5.57686e+006
1,605,5.5167e+006
1,606,5.53681e+006
1,607,5.52517e+006
1,608,5.50962e+006
1,609,5.55693e+006
1,610,5.54799e+006
1,611,5.50088e+006
1,612,5.49916e+006
1,613,5.50193e+006
1,614,5.49312e+006
1,615,5.47153e+006
1,616,5.47397e+006
1,617,5.44959e+006
1,618,5.48646e+006
1,619,5.47141e+006
1,620,5.48104e+006
1,621,5.43024e+006
1,622,5.47562e+006
1,623,5.43292e+006
1,624,5.45143e+006
1,625,5.46371e+006
1,626,5.42485e+006
1,627,5.39601e+006
1,628,5.38753e+006
1,629,5.41495e+006
1,630,5.37618e+006
1,631,5.40993e+006
1,632,5.39126e+006
1,633,5.33228e+006
1,634,5.38281e+006
1,635,5.4307e+006
1,636,5.35364e+006
1,637,5.34975e+006
1,638,5.3321e+006
1,639,5.34544e+006
1,640,5.3026e+006
1,641,5.3094e+006
1,642,5.29627e+006
1,643,5.30839e+006
1,644,5.28827e+006
1,645,5.32077e+006
1,646,5.27927e+006
1,647,5.27021e+006
1,648,5.25591e+006
1,649,5.26567e+006
1,650,5.21809e+006
1,651,5.21886e+006
1,652,5.21933e+006
1,653,5.22999e+006
1,654,5.21008e+006
1,655,5.17918e+006
1,656,5.16591e+006
1,657,5.16291e+006
1,658,5.18256e+006
1,659,5.15232e+006
1,660,5.14638e+006
1,661,5.17033e+006
1,662,5.11479e+006
1,663,5.11043e+006
1,664,5.12612e+006
1,665,5.09049e+006
1,666,5.08678e+006
1,667,5.11186e+006
1,668,5.09006e+006
1,669,5.04009e+006
1,670,5.03319e+006
1,671,5.04715e+006
1,672,5.02357e+006
1,673,5.01723e+006
1,674,5.01041e+006
1,675,4.99534e+006
1,676,4.97878e+006
1,677,4.99238e+006
1,678,4.9709e+006
1,679,4.99557e+006
1,680,4.94708e+006
1,681,4.9386e+006
1,682,4.91967e+006
1,683,4.92932e+006
1,684,4.94766e+006
1,685,4.94372e+006
1,686,4.88966e+006
1,687,4.90609e+006
1,688,4.87752e+006
1,689,4.86479e+006
1,690,4.83421e+006
1,691,4.87195e+006
1,692,4.79578e+006
1,693,4.79397e+006
1,694,4.81028e+006
1,695,4.77185e+006
1,696,4.75029e+006
1,697,4.773e+006
1,698,4.74757e+006
1,699,4.71864e+006
1,700,4.71263e+006
1,701,4.70543e+006
1,702,4.68094e+006
1,703,4.68199e+006
1,704,4.68588e+006
1,705,4.65782e+006
1,706,4.66349e+006
1,707,4.64285e+006
1,708,4.61585e+006
1,709,4.62188e+006
1,710,4.59328e+006
1,711,4.57814e+006
1,712,4.56449e+006
1,713,4.55439e+006
1,714,4.54195e+006
1,715,4.52857e+006
1,716,4.53099e+006
1,717,4.51114e+006
1,718,4.49229e+006
1,719,4.48991e+006
1,720,4.47082e+006
1,721,4.45421e+006
1,722,4.44331e+006
1,723,4.4365e+006
1,724,4.42072e+006
1,725,4.41591e+006
1,726,4.40615e+006
1,727,4.39644e+006
1,728,4.37845e+006
1,729,4.36907e+006
1,730,4.35861e+006
1,731,4.34654e+006
1,732,4.33637e+006
1,733,4.32913e+006
1,734,4.31606e+006
1,735,4.30402e+006
1,736,4.29488e+006
1,737,4.2816e+006
1,738,4.27245e+006
1,739,4.26018e+006
1,740,4.25097e+006
1,741,4.24102e+006
1,742,4.23057e+006
1,743,4.21837e+006
1,744,4.20989e+006
1,745,4.19788e+006
1,746,4.18653e+006
1,747,4.17578e+006
1,748,4.16502e+006
1,749,4.15453e+006
1,750,4.1446e+006
1,751,4.13433e+006
1,752,4.1216e+006
1,753,4.1139e+006
1,754,4.10418e+006
1,755,4.09266e+006
1,756,4.08333e+006
1,757,4.07265e+006
1,758,4.06364e+006
1,759,4.05208e+006
1,760,4.04541e+006
1,761,4.03324e+006
1,762,4.02225e+006
1,763,4.01359e+006
1,764,4.00473e+006
1,765,3.99317e+006
1,766,3.98261e+006
1,767,3.97249e+006
1,768,3.96246e+006
1,769,3.95053e+006
1,770,3.94099e+006
1,771,3.93133e+006
1,772,3.92092e+006
1,773,3.91327e+006
1,774,3.90174e+006
1,775,3.89388e+006
1,776,3.884e+006
1,777,3.87502e+006
1,778,3.86379e+006
1,779,3.85361e+006
1,780,3.84704e+006
1,781,3.83822e+006
1,782,3.82811e+006
1,783,3.81875e+006
1,784,3.80989e+006
1,785,3.79926e+006
1,786,3.79237e+006
1,787,3.78085e+006
1,788,3.77337e+006
1,789,3.76467e+006
1,790,3.75493e+006
1,791,3.74877e+006
1,792,3.74244e+006
1,793,3.73038e+006
1,794,3.71938e+006
1,795,3.71097e+006
1,796,3.70392e+006
1,797,3.69504e+006
1,798,3.68613e+006
1,799,3.67866e+006
1,800,3.67279e+006
1,801,3.66483e+006
1,802,3.65375e+006
1,803,3.64413e+006
1,804,3.6367e+006
1,805,3.62576e+006
1,806,3.62015e+006
1,807,3.60929e+006
1,808,3.59987e+006
1,809,3.59191e+006
1,810,3.58105e+006
1,811,3.57182e+006
1,812,3.56385e+006
1,813,3.55237e+006
1,814,3.54182e+006
1,815,3.53386e+006
1,816,3.52385e+006
1,817,3.51451e+006
1,818,3.50547e+006
1,819,3.49648e+006
1,820,3.48785e+006
1,821,3.47972e+006
1,822,3.47103e+006
1,823,3.46555e+006
1,824,3.45829e+006
1,825,3.44868e+006
1,826,3.44422e+006
1,827,3.43325e+006
1,828,3.42542e+006
1,829,3.41366e+006
1,830,3.40555e+006
1,831,3.39938e+006
1,832,3.38716e+006
1,833,3.37618e+006
1,834,3.36998e+006
1,835,3.35835e+006
1,836,3.34995e+006
1,837,3.34095e+006
1,838,3.33455e+006
1,839,3.3295e+006
1,840,3.32063e+006
1,841,3.30988e+006
1,842,3.30522e+006
1,843,3.29636e+006
1,844,3.28983e+006
1,845,3.27984e+006
1,846,3.27117e+006
1,847,3.26101e+006
1,848,3.25281e+006
1,849,3.2496e+006
1,850,3.24333e+006
1,851,3.23613e+006
1,852,3.23226e+006
1,853,3.22347e+006
1,854,3.21692e+006
1,855,3.21129e+006
1,856,3.20328e+006
1,857,3.19834e+006
1,858,3.19207e+006
1,859,3.18681e+006
1,860,3.17658e+006
1,861,3.17264e+006
1,862,3.16436e+006
1,863,3.16179e+006
1,864,3.15544e+006
1,865,3.15032e+006
1,866,3.14448e+006
1,867,3.13661e+006
1,868,3.13297e+006
1,869,3.12661e+006
1,870,3.12079e+006
1,871,3.11439e+006
1,872,3.1094e+006
1,873,3.10282e+006
1,874,3.09464e+006
1,875,3.09098e+006
1,876,3.08559e+006
1,877,3.08157e+006
1,878,3.07695e+006
1,879,3.0712e+006
1,880,3.06783e+006
1,881,3.06169e+006
1,882,3.05751e+006
1,883,3.05214e+006
1,884,3.04726e+006
1,885,3.04138e+006
1,886,3.03623e+006
1,887,3.03116e+006
1,888,3.02976e+006
1,889,3.02196e+006
1,890,3.02127e+006
1,891,3.01715e+006
1,892,3.01005e+006
1,893,3.00597e+006
1,894,3.00038e+006
1,895,2.99623e+006
1,896,2.98937e+006
1,897,2.98473e+006
1,898,2.98228e+006
1,899,2.97951e+006
1,900,2.9761e+006
1,901,2.97291e+006
1,902,2.96921e+006
1,903,2.96548e+006
1,904,2.96245e+006
1,905,2.95666e+006
1,906,2.95675e+006
1,907,2.95346e+006
1,908,2.95069e+006
1,909,2.94802e+006
1,910,2.94808e+006
1,911,2.94941e+006
1,912,2.94659e+006
1,913,2.94537e+006
1,914,2.94665e+006
1,915,2.94654e+006
1,916,2.94498e+006
1,917,2.94351e+006
1,918,2.93962e+006
1,919,2.93484e+006
1,920,2.92912e+006
1,921,2.92649e+006
1,922,2.91698e+006
1,923,2.91299e+006
1,924,2.90443e+006
1,925,2.90187e+006
1,926,2.89792e+006
1,927,2.89212e+006
1,928,2.88588e+006
1,929,2.88184e+006
1,930,2.87776e+006
1,931,2.87356e+006
1,932,2.867e+006
1,933,2.86196e+006
1,934,2.85445e+006
1,935,2.84915e+006
1,936,2.84478e+006
1,937,2.84192e+006
1,938,2.83806e+006
1,939,2.83165e+006
1,940,2.82697e+006
1,941,2.82224e+006
1,942,2.81816e+006
1,943,2.81516e+006
1,944,2.81146e+006
1,945,2.80491e+006
1,946,2.80304e+006
1,947,2.80027e+006
1,948,2.79271e+006
1,949,2.79145e+006
1,950,2.78877e+006
1,951,2.78617e+006
1,952,2.78193e+006
1,953,2.77994e+006
1,954,2.77515e+006
1,955,2.77468e+006
1,956,2.77278e+006
1,957,2.76652e+006
1,958,2.76363e+006
1,959,2.76165e+006
1,960,2.75863e+006
1,961,2.75885e+006
1,962,2.75266e+006
1,963,2.74861e+006
1,964,2.74645e+006
1,965,2.74325e+006
1,966,2.74226e+006
1,967,2.73928e+006
1,968,2.7383e+006
1,969,2.73322e+006
1,970,2.73301e+006
1,971,2.72943e+006
1,972,2.72698e+006
1,973,2.7233e+006
1,974,2.72034e+006
1,975,2.71311e+006
1,976,2.71261e+006
1,977,2.70907e+006
1,978,2.70742e+006
1,979,2.70819e+006
1,980,2.70578e+006
1,981,2.70228e+006
1,982,2.69946e+006
1,983,2.69527e+006
1,984,2.69673e+006
1,985,2.69186e+006
1,986,2.69051e+006
1,987,2.68618e+006
1,988,2.6842e+006
1,989,2.68109e+006
1,990,2.68133e+006
1,991,2.67839e+006
1,992,2.67459e+006
1,993,2.67113e+006
1,994,2.66984e+006
1,995,2.66759e+006
1,996,2.66602e+006
1,997,2.66215e+006
1,998,2.65955e+006
1,999,2.65685e+006
1,1000,2.65136e+006
1,1001,2.64933e+006
1,1002,2.64796e+006
1,1003,2.64629e+006
1,1004,2.64339e+006
1,1005,2.6438e+006
1,1006,2.63874e+006
1,1007,2.6355e+006
1,1008,2.63418e+006
1,1009,2.63211e+006
1,1010,2.63084e+006
1,1011,2.62922e+006
1,1012,2.62772e+006
1,1013,2.62319e+006
1,1014,2.62179e+006
1,1015,2.61808e+006
1,1016,2.61699e+006
1,1017,2.61497e+006
1,1018,2.61081e+006
1,1019,2.61016e+006
1,1020,2.6092e+006
1,1021,2.60497e+006
1,1022,2.60329e+006
1,1023,2.60123e+006
1,1024,2.59895e+006
1,1025,2.59506e+006
1,1026,2.59395e+006
1,1027,2.59232e+006
1,1028,2.58874e+006
1,1029,2.58476e+006
1,1030,2.58502e+006
1,1031,2.5817e+006
1,1032,2.57963e+006
1,1033,2.5792e+006
1,1034,2.57642e+006
1,1035,2.57338e+006
1,1036,2.5719e+006
1,1037,2.56967e+006
1,1038,2.56843e+006
1,1039,2.56535e+006
1,1040,2.56263e+006
1,1041,2.56001e+006
1,1042,2.55956e+006
1,1043,2.55655e+006
1,1044,2.55374e+006
1,1045,2.5517e+006
1,1046,2.55193e+006
1,1047,2.54909e+006
1,1048,2.54744e+006
1,1049,2.54213e+006
1,1050,2.54138e+006
1,1051,2.53767e+006
1,1052,2.53407e+006
1,1053,2.53509e+006
1,1054,2.53249e+006
1,1055,2.53139e+006
1,1056,2.52924e+006
1,1057,2.52888e+006
1,1058,2.52799e+006
1,1059,2.52679e+006
1,1060,2.52763e+006
1,1061,2.52804e+006
1,1062,2.52863e+006
1,1063,2.5336e+006
1,1064,2.53428e+006
1,1065,2.53803e+006
1,1066,2.53848e+006
1,1067,2.54326e+006
1,1068,2.54344e+006
1,1069,2.54298e+006
1,1070,2.54271e+006
1,1071,2.5388e+006
1,1072,2.53424e+006
1,1073,2.52651e+006
1,1074,2.51975e+006
1,1075,2.51162e+006
1,1076,2.50052e+006
1,1077,2.49195e+006
1,1078,2.48653e+006
1,1079,2.47972e+006
1,1080,2.47414e+006
1,1081,2.46931e+006
1,1082,2.4664e+006
1,1083,2.46016e+006
1,1084,2.45894e+006
1,1085,2.45484e+006
1,1086,2.45122e+006
1,1087,2.44871e+006
1,1088,2.44528e+006
1,1089,2.44154e+006
1,1090,2.44026e+006
1,1091,2.43714e+006
1,1092,2.43304e+006
1,1093,2.43141e+006
1,1094,2.42784e+006
1,1095,2.42535e+006
1,1096,2.42164e+006
1,1097,2.42091e+006
1,1098,2.41569e+006
1,1099,2.41179e+006
1,1100,2.41042e+006
1,1101,2.40736e+006
1,1102,2.40367e+006
1,1103,2.40169e+006
1,1104,2.39863e+006
1,1105,2.39504e+006
1,1106,2.39109e+006
1,1107,2.38768e+006
1,1108,2.38483e+006
1,1109,2.38282e+006
1,1110,2.38196e+006
1,1111,2.37753e+006
1,1112,2.37518e+006
1,1113,2.37132e+006
1,1114,2.36938e+006
1,1115,2.36475e+006
1,1116,2.36449e+006
1,1117,2.36012e+006
1,1118,2.35812e+006
1,1119,2.35417e+006
1,1120,2.35382e+006
1,1121,2.34992e+006
1,1122,2.34751e+006
1,1123,2.34629e+006
1,1124,2.34193e+006
1,1125,2.34043e+006
1,1126,2.33583e+006
1,1127,2.33157e+006
1,1128,2.32959e+006
1,1129,2.3271e+006
1,1130,2.32401e+006
1,1131,2.32144e+006
1,1132,2.32004e+006
1,1133,2.31781e+006
1,1134,2.3159e+006
1,1135,2.31269e+006
1,1136,2.31235e+006
1,1137,2.30705e+006
1,1138,2.30439e+006
1,1139,2.3003e+006
1,1140,2.29827e+006
1,1141,2.29358e+006
1,1142,2.28943e+006
1,1143,2.2873e+006
1,1144,2.28431e+006
1,1145,2.27925e+006
1,1146,2.27345e+006
1,1147,2.27084e+006
1,1148,2.26718e+006
1,1149,2.26238e+006
1,1150,2.26198e+006
1,1151,2.25624e+006
1,1152,2.24815e+006
1,1153,2.24846e+006
1,1154,2.24299e+006
1,1155,2.24134e+006
1,1156,2.23693e+006
1,1157,2.23484e+006
1,1158,2.23112e+006
1,1159,2.22594e+006
1,1160,2.22383e+006
1,1161,2.21824e+006
1,1162,2.21692e+006
1,1163,2.21278e+006
1,1164,2.21085e+006
1,1165,2.20638e+006
1,1166,2.20503e+006
1,1167,2.20237e+006
1,1168,2.19616e+006
1,1169,2.194e+006
1,1170,2.18897e+006
1,1171,2.18715e+006
1,1172,2.18211e+006
1,1173,2.18166e+006
1,1174,2.17706e+006
1,1175,2.17236e+006
1,1176,2.1694e+006
1,1177,2.16633e+006
1,1178,2.16148e+006
1,1179,2.15658e+006
1,1180,2.15254e+006
1,1181,2.1488e+006
1,1182,2.14493e+006
1,1183,2.14226e+006
1,1184,2.13961e+006
1,1185,2.13644e+006
1,1186,2.13234e+006
1,1187,2.12855e+006
1,1188,2.12585e+006
1,1189,2.12227e+006
1,1190,2.11765e+006
1,1191,2.11344e+006
1,1192,2.1111e+006
1,1193,2.10639e+006
1,1194,2.10354e+006
1,1195,2.09828e+006
1,1196,2.09587e+006
1,1197,2.0924e+006
1,1198,2.08929e+006
1,1199,2.08393e+006
1,1200,2.08153e+006
1,1201,2.07719e+006
1,1202,2.07328e+006
1,1203,2.07199e+006
1,1204,2.06698e+006
1,1205,2.06296e+006
1,1206,2.05944e+006
1,1207,2.05461e+006
1,1208,2.05221e+006
1,1209,2.04749e+006
1,1210,2.04442e+006
1,1211,2.03816e+006
1,1212,2.03541e+006
1,1213,2.0311e+006
1,1214,2.02811e+006
1,1215,2.02503e+006
1,1216,2.01887e+006
1,1217,2.01739e+006
1,1218,2.01326e+006
1,1219,2.01055e+006
1,1220,2.00596e+006
1,1221,2.0029e+006
1,1222,1.99756e+006
1,1223,1.9964e+006
1,1224,1.99101e+006
1,1225,1.98618e+006
1,1226,1.98243e+006
1,1227,1.97866e+006
1,1228,1.97309e+006
1,1229,1.96951e+006
1,1230,1.96223e+006
1,1231,1.95942e+006
1,1232,1.95492e+006
1,1233,1.9501e+006
1,1234,1.94536e+006
1,1235,1.94207e+006
1,1236,1.93949e+006
1,1237,1.93343e+006
1,1238,1.92888e+006
1,1239,1.92307e+006
1,1240,1.91744e+006
1,1241,1.91405e+006
1,1242,1.90731e+006
1,1243,1.90266e+006
1,1244,1.89671e+006
1,1245,1.89055e+006
1,1246,1.88672e+006
1,1247,1.88255e+006
1,1248,1.87668e+006
1,1249,1.86961e+006
1,1250,1.86459e+006
1,1251,1.85824e+006
1,1252,1.85205e+006
1,1253,1.84382e+006
1,1254,1.83911e+006
1,1255,1.83176e+006
1,1256,1.82597e+006
1,1257,1.81907e+006
1,1258,1.81255e+006
1,1259,1.80428e+006
1,1260,1.80012e+006
1,1261,1.79428e+006
1,1262,1.78873e+006
1,1263,1.78319e+006
1,1264,1.77691e+006
1,1265,1.76871e+006
1,1266,1.76463e+006
1,1267,1.757e+006
1,1268,1.75074e+006
1,1269,1.74269e+006
1,1270,1.7366e+006
1,1271,1.72791e+006
1,1272,1.72035e+006
1,1273,1.71148e+006
1,1274,1.70467e+006
1,1275,1.69557e+006
1,1276,1.68706e+006
1,1277,1.67878e+006
1,1278,1.66985e+006
1,1279,1.66272e+006
1,1280,1.65206e+006
1,1281,1.64331e+006
1,1282,1.63278e+006
1,1283,1.6244e+006
1,1284,1.61641e+006
1,1285,1.6055e+006
1,1286,1.5983e+006
1,1287,1.58875e+006
1,1288,1.58014e+006
1,1289,1.57126e+006
1,1290,1.56203e+006
1,1291,1.5537e+006
1,1292,1.54206e+006
1,1293,1.53275e+006
1,1294,1.5243e+006
1,1295,1.51525e+006
1,1296,1.50553e+006
1,1297,1.49477e+006
1,1298,1.48679e+006
1,1299,1.47605e+006
1,1300,1.46765e+006
1,1301,1.45836e+006
1,1302,1.44677e+006
1,1303,1.43602e+006
1,1304,1.42834e+006
1,1305,1.41879e+006
1,1306,1.40624e+006
1,1307,1.39722e+006
1,1308,1.38747e+006
1,1309,1.37667e+006
1,1310,1.36676e+006
1,1311,1.35895e+006
1,1312,1.34821e+006
1,1313,1.33794e+006
1,1314,1.32761e+006
1,1315,1.31774e+006
1,1316,1.30905e+006
1,1317,1.29881e+006
1,1318,1.28839e+006
1,1319,1.28031e+006
1,1320,1.27097e+006
1,1321,1.2602e+006
1,1322,1.24969e+006
1,1323,1.2405e+006
1,1324,1.2299e+006
1,1325,1.21878e+006
1,1326,1.21149e+006
1,1327,1.20136e+006
1,1328,1.19172e+006
1,1329,1.1826e+006
1,1330,1.17304e+006
1,1331,1.16234e+006
1,1332,1.153e+006
1,1333,1.14308e+006
1,1334,1.1339e+006
1,1335,1.12449e+006
1,1336,1.11444e+006
1,1337,1.10592e+006
1,1338,1.09621e+006
1,1339,1.08591e+006
1,1340,1.07102e+006
