1,1,153650
1,2,155101
1,3,156503
1,4,157909
1,5,159404
1,6,160842
1,7,162044
1,8,163627
1,9,165213
1,10,166374
1,11,167716
1,12,169750
1,13,171088
1,14,172116
1,15,174135
1,16,175757
1,17,177337
1,18,179147
1,19,180647
1,20,181962
1,21,183741
1,22,185059
1,23,186844
1,24,188210
1,25,189988
1,26,191743
1,27,193591
1,28,194941
1,29,196619
1,30,198332
1,31,199841
1,32,201732
1,33,203719
1,34,205053
1,35,206742
1,36,208449
1,37,209842
1,38,212023
1,39,213695
1,40,215401
1,41,216755
1,42,218994
1,43,220774
1,44,222628
1,45,224350
1,46,226210
1,47,228163
1,48,229778
1,49,231758
1,50,233362
1,51,235033
1,52,236649
1,53,238980
1,54,240503
1,55,242527
1,56,244956
1,57,246925
1,58,249203
1,59,250795
1,60,252767
1,61,255312
1,62,258107
1,63,259546
1,64,261898
1,65,264126
1,66,266403
1,67,268388
1,68,270759
1,69,272985
1,70,274581
1,71,276450
1,72,278050
1,73,279669
1,74,280233
1,75,281009
1,76,281310
1,77,279952
1,78,277905
1,79,274344
1,80,270115
1,81,264651
1,82,256963
1,83,247559
1,84,237456
1,85,227473
1,86,216748
1,87,206501
1,88,196660
1,89,187339
1,90,178636
1,91,170779
1,92,164578
1,93,159285
1,94,156068
1,95,154990
1,96,155636
1,97,160595
1,98,172708
1,99,193036
1,100,230277
1,101,291809
1,102,377749
1,103,478992
1,104,580703
1,105,679059
1,106,730425
1,107,730545
1,108,681580
1,109,579356
1,110,459803
1,111,340473
1,112,239235
1,113,164101
1,114,136570
1,115,120947
1,116,112693
1,117,108855
1,118,105985
1,119,103355
1,120,100282
1,121,97755
1,122,94886
1,123,92407
1,124,89862
1,125,88355
1,126,86840
1,127,85485
1,128,84670
1,129,84132
1,130,83469
1,131,83280
1,132,82934
1,133,82608
1,134,82585
1,135,82258
1,136,82010
1,137,81899
1,138,81937
1,139,81719
1,140,81714
1,141,81635
1,142,81510
1,143,81559
1,144,81493
1,145,81459
1,146,81360
1,147,81440
1,148,81424
1,149,81322
1,150,81501
1,151,81539
1,152,81371
1,153,81555
1,154,81611
1,155,81751
1,156,81774
1,157,81787
1,158,81950
1,159,82101
1,160,82059
1,161,82039
1,162,82259
1,163,82278
1,164,82444
1,165,82623
1,166,82793
1,167,82920
1,168,83184
1,169,83169
1,170,83474
1,171,83668
1,172,84017
1,173,84161
1,174,84470
1,175,84729
1,176,85007
1,177,85285
1,178,85507
1,179,85830
1,180,86155
1,181,86455
1,182,86690
1,183,87066
1,184,87442
1,185,87551
1,186,87835
1,187,88317
1,188,88532
1,189,89089
1,190,89682
1,191,90608
1,192,91218
1,193,92760
1,194,94543
1,195,96623
1,196,99153
1,197,102318
1,198,106148
1,199,110366
1,200,116295
1,201,123861
1,202,133263
1,203,143175
1,204,153783
1,205,164460
1,206,175440
1,207,187169
1,208,200716
1,209,217526
1,210,236131
1,211,255808
1,212,275687
1,213,295255
1,214,312229
1,215,328134
1,216,344380
1,217,362482
1,218,383534
1,219,405773
1,220,430083
1,221,454111
1,222,476213
1,223,495312
1,224,511770
1,225,526664
1,226,540741
1,227,558038
1,228,576298
1,229,597454
1,230,620320
1,231,640631
1,232,660563
1,233,676152
1,234,692147
1,235,705123
1,236,719167
1,237,734337
1,238,750825
1,239,768727
1,240,787989
1,241,806174
1,242,824335
1,243,838006
1,244,851587
1,245,863332
1,246,876181
1,247,890071
1,248,903781
1,249,920367
1,250,936596
1,251,952995
1,252,967088
1,253,981233
1,254,993805
1,255,1.00563e+006
1,256,1.01759e+006
1,257,1.02986e+006
1,258,1.04273e+006
1,259,1.05725e+006
1,260,1.07223e+006
1,261,1.08796e+006
1,262,1.10319e+006
1,263,1.11647e+006
1,264,1.12833e+006
1,265,1.14015e+006
1,266,1.15105e+006
1,267,1.16161e+006
1,268,1.17199e+006
1,269,1.18399e+006
1,270,1.19679e+006
1,271,1.20916e+006
1,272,1.22064e+006
1,273,1.23316e+006
1,274,1.24375e+006
1,275,1.25598e+006
1,276,1.26543e+006
1,277,1.27594e+006
1,278,1.28528e+006
1,279,1.29355e+006
1,280,1.30456e+006
1,281,1.31514e+006
1,282,1.32442e+006
1,283,1.33225e+006
1,284,1.34303e+006
1,285,1.35187e+006
1,286,1.3617e+006
1,287,1.36921e+006
1,288,1.37673e+006
1,289,1.38655e+006
1,290,1.39577e+006
1,291,1.4054e+006
1,292,1.41706e+006
1,293,1.42502e+006
1,294,1.43597e+006
1,295,1.44387e+006
1,296,1.45342e+006
1,297,1.46164e+006
1,298,1.4696e+006
1,299,1.47886e+006
1,300,1.48784e+006
1,301,1.49523e+006
1,302,1.50444e+006
1,303,1.51323e+006
1,304,1.52116e+006
1,305,1.53038e+006
1,306,1.53879e+006
1,307,1.54717e+006
1,308,1.55418e+006
1,309,1.5616e+006
1,310,1.57067e+006
1,311,1.58015e+006
1,312,1.59171e+006
1,313,1.59853e+006
1,314,1.60689e+006
1,315,1.61662e+006
1,316,1.62615e+006
1,317,1.63612e+006
1,318,1.64564e+006
1,319,1.65687e+006
1,320,1.6666e+006
1,321,1.67724e+006
1,322,1.68884e+006
1,323,1.69939e+006
1,324,1.7102e+006
1,325,1.72242e+006
1,326,1.73214e+006
1,327,1.74153e+006
1,328,1.75395e+006
1,329,1.76611e+006
1,330,1.77678e+006
1,331,1.78879e+006
1,332,1.80031e+006
1,333,1.81164e+006
1,334,1.82174e+006
1,335,1.83517e+006
1,336,1.84646e+006
1,337,1.85928e+006
1,338,1.87062e+006
1,339,1.88561e+006
1,340,1.89756e+006
1,341,1.91168e+006
1,342,1.92545e+006
1,343,1.93865e+006
1,344,1.95232e+006
1,345,1.96596e+006
1,346,1.97889e+006
1,347,1.99581e+006
1,348,2.00714e+006
1,349,2.02277e+006
1,350,2.03714e+006
1,351,2.05004e+006
1,352,2.0666e+006
1,353,2.0821e+006
1,354,2.0979e+006
1,355,2.11439e+006
1,356,2.13117e+006
1,357,2.14847e+006
1,358,2.16299e+006
1,359,2.17867e+006
1,360,2.19435e+006
1,361,2.21256e+006
1,362,2.23035e+006
1,363,2.24821e+006
1,364,2.26716e+006
1,365,2.28671e+006
1,366,2.30477e+006
1,367,2.32409e+006
1,368,2.34494e+006
1,369,2.36557e+006
1,370,2.38388e+006
1,371,2.40383e+006
1,372,2.42655e+006
1,373,2.44708e+006
1,374,2.46978e+006
1,375,2.48902e+006
1,376,2.51237e+006
1,377,2.53472e+006
1,378,2.5595e+006
1,379,2.58311e+006
1,380,2.60587e+006
1,381,2.62911e+006
1,382,2.65409e+006
1,383,2.67736e+006
1,384,2.70353e+006
1,385,2.72855e+006
1,386,2.75336e+006
1,387,2.77995e+006
1,388,2.8038e+006
1,389,2.83198e+006
1,390,2.86218e+006
1,391,2.89301e+006
1,392,2.92042e+006
1,393,2.94763e+006
1,394,2.97763e+006
1,395,3.00805e+006
1,396,3.04006e+006
1,397,3.07256e+006
1,398,3.1013e+006
1,399,3.13359e+006
1,400,3.16674e+006
1,401,3.20105e+006
1,402,3.23627e+006
1,403,3.27309e+006
1,404,3.30846e+006
1,405,3.34302e+006
1,406,3.3796e+006
1,407,3.41266e+006
1,408,3.45227e+006
1,409,3.49087e+006
1,410,3.52848e+006
1,411,3.56909e+006
1,412,3.60833e+006
1,413,3.64352e+006
1,414,3.68289e+006
1,415,3.71426e+006
1,416,3.74731e+006
1,417,3.78047e+006
1,418,3.8106e+006
1,419,3.843e+006
1,420,3.87583e+006
1,421,3.90914e+006
1,422,3.93982e+006
1,423,3.97274e+006
1,424,4.00177e+006
1,425,4.03136e+006
1,426,4.06307e+006
1,427,4.09405e+006
1,428,4.12373e+006
1,429,4.15253e+006
1,430,4.18201e+006
1,431,4.21067e+006
1,432,4.24092e+006
1,433,4.26931e+006
1,434,4.29788e+006
1,435,4.32705e+006
1,436,4.35626e+006
1,437,4.38243e+006
1,438,4.411e+006
1,439,4.43615e+006
1,440,4.46728e+006
1,441,4.49362e+006
1,442,4.52182e+006
1,443,4.54851e+006
1,444,4.57547e+006
1,445,4.60144e+006
1,446,4.62783e+006
1,447,4.65746e+006
1,448,4.68374e+006
1,449,4.7102e+006
1,450,4.73486e+006
1,451,4.76409e+006
1,452,4.7883e+006
1,453,4.81502e+006
1,454,4.83996e+006
1,455,4.86566e+006
1,456,4.88995e+006
1,457,4.91799e+006
1,458,4.94199e+006
1,459,4.96814e+006
1,460,4.99204e+006
1,461,5.01805e+006
1,462,5.04649e+006
1,463,5.07195e+006
1,464,5.10515e+006
1,465,5.13738e+006
1,466,5.17273e+006
1,467,5.2078e+006
1,468,5.24914e+006
1,469,5.29166e+006
1,470,5.3317e+006
1,471,5.35684e+006
1,472,5.41489e+006
1,473,5.45003e+006
1,474,5.49883e+006
1,475,5.54054e+006
1,476,5.5891e+006
1,477,5.62985e+006
1,478,5.69342e+006
1,479,5.71998e+006
1,480,5.78101e+006
1,481,5.82155e+006
1,482,5.87551e+006
1,483,5.91674e+006
1,484,5.98653e+006
1,485,6.0063e+006
1,486,6.06744e+006
1,487,6.14176e+006
1,488,6.19357e+006
1,489,6.24883e+006
1,490,6.3131e+006
1,491,6.38235e+006
1,492,6.39352e+006
1,493,6.40163e+006
1,494,6.4118e+006
1,495,6.42226e+006
1,496,6.4317e+006
1,497,6.43945e+006
1,498,6.44806e+006
1,499,6.45637e+006
1,500,6.46727e+006
1,501,6.47989e+006
1,502,6.4834e+006
1,503,6.49472e+006
1,504,6.50615e+006
1,505,6.51587e+006
1,506,6.5247e+006
1,507,6.52256e+006
1,508,6.5386e+006
1,509,6.54472e+006
1,510,6.54684e+006
1,511,6.5535e+006
1,512,6.5535e+006
1,513,6.5535e+006
1,514,6.5535e+006
1,515,6.5535e+006
1,516,6.5535e+006
1,517,6.5535e+006
1,518,6.5535e+006
1,519,6.5535e+006
1,520,6.5535e+006
1,521,6.5535e+006
1,522,6.5535e+006
1,523,6.5535e+006
1,524,6.5535e+006
1,525,6.5535e+006
1,526,6.5535e+006
1,527,6.5535e+006
1,528,6.5535e+006
1,529,6.5535e+006
1,530,6.5535e+006
1,531,6.5535e+006
1,532,6.5535e+006
1,533,6.5535e+006
1,534,6.5535e+006
1,535,6.5535e+006
1,536,6.5535e+006
1,537,6.5535e+006
1,538,6.5535e+006
1,539,6.5535e+006
1,540,6.5535e+006
1,541,6.5535e+006
1,542,6.5535e+006
1,543,6.5535e+006
1,544,6.5535e+006
1,545,6.5535e+006
1,546,6.5535e+006
1,547,6.5535e+006
1,548,6.5535e+006
1,549,6.5535e+006
1,550,6.5535e+006
1,551,6.5535e+006
1,552,6.5535e+006
1,553,6.5535e+006
1,554,6.5535e+006
1,555,6.5535e+006
1,556,6.5535e+006
1,557,6.5535e+006
1,558,6.5535e+006
1,559,6.5535e+006
1,560,6.5535e+006
1,561,6.5535e+006
1,562,6.5535e+006
1,563,6.5535e+006
1,564,6.5535e+006
1,565,6.5535e+006
1,566,6.5535e+006
1,567,6.5535e+006
1,568,6.5535e+006
1,569,6.5535e+006
1,570,6.5535e+006
1,571,6.5535e+006
1,572,6.5535e+006
1,573,6.5535e+006
1,574,6.5535e+006
1,575,6.5535e+006
1,576,6.5535e+006
1,577,6.5535e+006
1,578,6.5535e+006
1,579,6.5535e+006
1,580,6.5535e+006
1,581,6.5535e+006
1,582,6.5535e+006
1,583,6.5535e+006
1,584,6.5535e+006
1,585,6.5535e+006
1,586,6.5535e+006
1,587,6.5535e+006
1,588,6.5535e+006
1,589,6.5535e+006
1,590,6.5535e+006
1,591,6.5535e+006
1,592,6.5535e+006
1,593,6.5535e+006
1,594,6.5535e+006
1,595,6.5535e+006
1,596,6.5535e+006
1,597,6.5535e+006
1,598,6.5535e+006
1,599,6.5535e+006
1,600,6.5535e+006
1,601,6.5535e+006
1,602,6.5535e+006
1,603,6.5535e+006
1,604,6.5535e+006
1,605,6.5535e+006
1,606,6.5535e+006
1,607,6.5535e+006
1,608,6.5535e+006
1,609,6.5535e+006
1,610,6.5535e+006
1,611,6.5535e+006
1,612,6.5535e+006
1,613,6.5535e+006
1,614,6.5535e+006
1,615,6.5535e+006
1,616,6.5535e+006
1,617,6.5535e+006
1,618,6.5535e+006
1,619,6.5535e+006
1,620,6.5535e+006
1,621,6.5535e+006
1,622,6.5535e+006
1,623,6.5535e+006
1,624,6.5535e+006
1,625,6.5535e+006
1,626,6.5535e+006
1,627,6.5535e+006
1,628,6.5535e+006
1,629,6.5535e+006
1,630,6.5535e+006
1,631,6.5535e+006
1,632,6.5535e+006
1,633,6.5535e+006
1,634,6.5535e+006
1,635,6.5535e+006
1,636,6.5535e+006
1,637,6.5535e+006
1,638,6.5535e+006
1,639,6.5535e+006
1,640,6.5535e+006
1,641,6.5535e+006
1,642,6.5535e+006
1,643,6.5535e+006
1,644,6.5535e+006
1,645,6.5535e+006
1,646,6.5535e+006
1,647,6.5535e+006
1,648,6.5535e+006
1,649,6.5535e+006
1,650,6.5535e+006
1,651,6.5535e+006
1,652,6.5535e+006
1,653,6.5535e+006
1,654,6.5535e+006
1,655,6.5535e+006
1,656,6.5535e+006
1,657,6.5535e+006
1,658,6.5535e+006
1,659,6.5535e+006
1,660,6.5535e+006
1,661,6.5535e+006
1,662,6.5535e+006
1,663,6.5535e+006
1,664,6.5535e+006
1,665,6.5535e+006
1,666,6.5535e+006
1,667,6.5535e+006
1,668,6.5535e+006
1,669,6.5535e+006
1,670,6.5535e+006
1,671,6.5535e+006
1,672,6.5535e+006
1,673,6.5535e+006
1,674,6.5535e+006
1,675,6.5535e+006
1,676,6.5535e+006
1,677,6.5535e+006
1,678,6.5535e+006
1,679,6.5535e+006
1,680,6.5535e+006
1,681,6.5535e+006
1,682,6.5535e+006
1,683,6.5535e+006
1,684,6.5535e+006
1,685,6.5535e+006
1,686,6.5535e+006
1,687,6.5535e+006
1,688,6.5535e+006
1,689,6.5535e+006
1,690,6.5535e+006
1,691,6.5535e+006
1,692,6.5535e+006
1,693,6.5535e+006
1,694,6.5535e+006
1,695,6.5535e+006
1,696,6.5535e+006
1,697,6.5535e+006
1,698,6.5535e+006
1,699,6.5535e+006
1,700,6.5535e+006
1,701,6.5535e+006
1,702,6.5535e+006
1,703,6.5535e+006
1,704,6.5535e+006
1,705,6.5535e+006
1,706,6.5535e+006
1,707,6.5535e+006
1,708,6.5535e+006
1,709,6.5535e+006
1,710,6.5535e+006
1,711,6.5535e+006
1,712,6.5535e+006
1,713,6.5535e+006
1,714,6.5535e+006
1,715,6.5535e+006
1,716,6.5535e+006
1,717,6.5535e+006
1,718,6.5535e+006
1,719,6.5535e+006
1,720,6.5535e+006
1,721,6.5535e+006
1,722,6.5535e+006
1,723,6.5535e+006
1,724,6.5535e+006
1,725,6.5535e+006
1,726,6.5535e+006
1,727,6.5535e+006
1,728,6.5535e+006
1,729,6.5535e+006
1,730,6.5535e+006
1,731,6.5535e+006
1,732,6.5535e+006
1,733,6.5535e+006
1,734,6.5535e+006
1,735,6.5535e+006
1,736,6.5535e+006
1,737,6.5535e+006
1,738,6.5535e+006
1,739,6.5535e+006
1,740,6.5535e+006
1,741,6.5535e+006
1,742,6.5535e+006
1,743,6.5535e+006
1,744,6.5535e+006
1,745,6.5535e+006
1,746,6.5535e+006
1,747,6.5535e+006
1,748,6.5535e+006
1,749,6.5535e+006
1,750,6.5535e+006
1,751,6.5535e+006
1,752,6.5535e+006
1,753,6.5535e+006
1,754,6.5535e+006
1,755,6.5535e+006
1,756,6.5535e+006
1,757,6.5535e+006
1,758,6.5535e+006
1,759,6.5535e+006
1,760,6.5535e+006
1,761,6.5535e+006
1,762,6.5535e+006
1,763,6.5535e+006
1,764,6.5535e+006
1,765,6.5535e+006
1,766,6.5535e+006
1,767,6.5535e+006
1,768,6.5535e+006
1,769,6.5535e+006
1,770,6.5535e+006
1,771,6.5535e+006
1,772,6.5535e+006
1,773,6.5535e+006
1,774,6.5535e+006
1,775,6.5535e+006
1,776,6.5535e+006
1,777,6.5535e+006
1,778,6.5535e+006
1,779,6.5535e+006
1,780,6.5535e+006
1,781,6.5535e+006
1,782,6.5535e+006
1,783,6.5535e+006
1,784,6.5535e+006
1,785,6.5535e+006
1,786,6.5535e+006
1,787,6.5535e+006
1,788,6.5535e+006
1,789,6.5535e+006
1,790,6.5535e+006
1,791,6.5535e+006
1,792,6.5535e+006
1,793,6.5535e+006
1,794,6.5535e+006
1,795,6.5535e+006
1,796,6.5535e+006
1,797,6.5535e+006
1,798,6.5535e+006
1,799,6.5535e+006
1,800,6.5535e+006
1,801,6.5535e+006
1,802,6.5535e+006
1,803,6.5535e+006
1,804,6.5535e+006
1,805,6.5535e+006
1,806,6.5535e+006
1,807,6.5535e+006
1,808,6.5535e+006
1,809,6.5535e+006
1,810,6.5535e+006
1,811,6.5535e+006
1,812,6.5535e+006
1,813,6.5535e+006
1,814,6.5535e+006
1,815,6.5535e+006
1,816,6.5535e+006
1,817,6.5535e+006
1,818,6.54606e+006
1,819,6.5535e+006
1,820,6.5535e+006
1,821,6.53986e+006
1,822,6.53325e+006
1,823,6.53247e+006
1,824,6.53155e+006
1,825,6.51416e+006
1,826,6.5205e+006
1,827,6.51228e+006
1,828,6.51884e+006
1,829,6.49826e+006
1,830,6.48843e+006
1,831,6.48682e+006
1,832,6.4758e+006
1,833,6.46913e+006
1,834,6.47979e+006
1,835,6.46185e+006
1,836,6.46059e+006
1,837,6.46441e+006
1,838,6.44618e+006
1,839,6.43996e+006
1,840,6.4409e+006
1,841,6.43754e+006
1,842,6.4277e+006
1,843,6.42026e+006
1,844,6.41497e+006
1,845,6.4071e+006
1,846,6.40333e+006
1,847,6.39503e+006
1,848,6.39686e+006
1,849,6.38857e+006
1,850,6.38452e+006
1,851,6.38286e+006
1,852,6.37563e+006
1,853,6.36473e+006
1,854,6.36304e+006
1,855,6.35607e+006
1,856,6.35207e+006
1,857,6.34702e+006
1,858,6.34009e+006
1,859,6.33606e+006
1,860,6.33026e+006
1,861,6.32789e+006
1,862,6.3204e+006
1,863,6.31531e+006
1,864,6.31004e+006
1,865,6.30396e+006
1,866,6.29967e+006
1,867,6.29406e+006
1,868,6.28908e+006
1,869,6.28161e+006
1,870,6.27931e+006
1,871,6.27483e+006
1,872,6.27044e+006
1,873,6.26487e+006
1,874,6.25851e+006
1,875,6.25417e+006
1,876,6.24807e+006
1,877,6.2441e+006
1,878,6.23823e+006
1,879,6.23246e+006
1,880,6.22819e+006
1,881,6.22347e+006
1,882,6.21776e+006
1,883,6.21269e+006
1,884,6.20565e+006
1,885,6.19884e+006
1,886,6.19564e+006
1,887,6.18913e+006
1,888,6.18362e+006
1,889,6.17879e+006
1,890,6.17475e+006
1,891,6.16904e+006
1,892,6.1617e+006
1,893,6.15789e+006
1,894,6.15387e+006
1,895,6.10363e+006
1,896,6.14188e+006
1,897,6.13698e+006
1,898,6.13255e+006
1,899,6.05204e+006
1,900,6.00873e+006
1,901,5.99222e+006
1,902,6.06151e+006
1,903,5.99168e+006
1,904,5.90514e+006
1,905,5.92346e+006
1,906,5.87857e+006
1,907,5.8826e+006
1,908,5.96585e+006
1,909,5.86635e+006
1,910,5.83725e+006
1,911,5.81187e+006
1,912,5.76231e+006
1,913,5.75463e+006
1,914,5.75212e+006
1,915,5.7467e+006
1,916,5.70028e+006
1,917,5.69688e+006
1,918,5.69736e+006
1,919,5.66614e+006
1,920,5.67162e+006
1,921,5.63659e+006
1,922,5.63183e+006
1,923,5.59229e+006
1,924,5.58141e+006
1,925,5.57632e+006
1,926,5.57195e+006
1,927,5.53906e+006
1,928,5.52335e+006
1,929,5.51833e+006
1,930,5.49068e+006
1,931,5.47176e+006
1,932,5.46678e+006
1,933,5.46039e+006
1,934,5.43394e+006
1,935,5.42081e+006
1,936,5.41463e+006
1,937,5.39362e+006
1,938,5.37531e+006
1,939,5.39788e+006
1,940,5.36303e+006
1,941,5.33657e+006
1,942,5.32462e+006
1,943,5.31936e+006
1,944,5.30616e+006
1,945,5.28726e+006
1,946,5.30531e+006
1,947,5.27358e+006
1,948,5.27461e+006
1,949,5.26571e+006
1,950,5.2598e+006
1,951,5.24366e+006
1,952,5.23016e+006
1,953,5.22662e+006
1,954,5.21832e+006
1,955,5.21662e+006
1,956,5.20983e+006
1,957,5.19426e+006
1,958,5.18518e+006
1,959,5.17891e+006
1,960,5.17389e+006
1,961,5.16797e+006
1,962,5.14994e+006
1,963,5.14351e+006
1,964,5.13861e+006
1,965,5.13582e+006
1,966,5.12868e+006
1,967,5.1152e+006
1,968,5.10715e+006
1,969,5.10286e+006
1,970,5.09836e+006
1,971,5.09564e+006
1,972,5.08278e+006
1,973,5.08469e+006
1,974,5.08379e+006
1,975,5.07976e+006
1,976,5.06568e+006
1,977,5.06118e+006
1,978,5.05544e+006
1,979,5.05389e+006
1,980,5.04831e+006
1,981,5.04737e+006
1,982,5.04125e+006
1,983,5.02736e+006
1,984,5.02524e+006
1,985,5.0232e+006
1,986,5.01814e+006
1,987,5.01563e+006
1,988,5.00831e+006
1,989,5.00137e+006
1,990,5.00475e+006
1,991,4.9956e+006
1,992,4.98986e+006
1,993,4.98848e+006
1,994,4.98249e+006
1,995,4.97699e+006
1,996,4.97577e+006
1,997,4.9707e+006
1,998,4.96592e+006
1,999,4.96766e+006
1,1000,4.95859e+006
1,1001,4.95567e+006
1,1002,4.95297e+006
1,1003,4.95135e+006
1,1004,4.94708e+006
1,1005,4.94486e+006
1,1006,4.94023e+006
1,1007,4.93831e+006
1,1008,4.93519e+006
1,1009,4.93037e+006
1,1010,4.92833e+006
1,1011,4.92523e+006
1,1012,4.92244e+006
1,1013,4.91973e+006
1,1014,4.91616e+006
1,1015,4.91276e+006
1,1016,4.91164e+006
1,1017,4.90908e+006
1,1018,4.90422e+006
1,1019,4.90352e+006
1,1020,4.90121e+006
1,1021,4.89634e+006
1,1022,4.8943e+006
1,1023,4.89207e+006
1,1024,4.88951e+006
1,1025,4.88652e+006
1,1026,4.88566e+006
1,1027,4.8831e+006
1,1028,4.87904e+006
1,1029,4.87574e+006
1,1030,4.87382e+006
1,1031,4.87114e+006
1,1032,4.87048e+006
1,1033,4.86756e+006
1,1034,4.86607e+006
1,1035,4.86381e+006
1,1036,4.86075e+006
1,1037,4.85703e+006
1,1038,4.85738e+006
1,1039,4.85227e+006
1,1040,4.84999e+006
1,1041,4.84712e+006
1,1042,4.84348e+006
1,1043,4.84144e+006
1,1044,4.84092e+006
1,1045,4.83756e+006
1,1046,4.83727e+006
1,1047,4.83545e+006
1,1048,4.83409e+006
1,1049,4.83053e+006
1,1050,4.82822e+006
1,1051,4.82334e+006
1,1052,4.82321e+006
1,1053,4.82158e+006
1,1054,4.82001e+006
1,1055,4.81419e+006
1,1056,4.81469e+006
1,1057,4.81293e+006
1,1058,4.8118e+006
1,1059,4.81131e+006
1,1060,4.80864e+006
1,1061,4.80793e+006
1,1062,4.80691e+006
1,1063,4.80523e+006
1,1064,4.80503e+006
1,1065,4.80414e+006
1,1066,4.80201e+006
1,1067,4.8022e+006
1,1068,4.7988e+006
1,1069,4.79763e+006
1,1070,4.79783e+006
1,1071,4.79624e+006
1,1072,4.79228e+006
1,1073,4.78826e+006
1,1074,4.78508e+006
1,1075,4.78041e+006
1,1076,4.7773e+006
1,1077,4.77298e+006
1,1078,4.77035e+006
1,1079,4.76716e+006
1,1080,4.76452e+006
1,1081,4.76078e+006
1,1082,4.76072e+006
1,1083,4.75748e+006
1,1084,4.75473e+006
1,1085,4.75209e+006
1,1086,4.74971e+006
1,1087,4.75038e+006
1,1088,4.74643e+006
1,1089,4.74506e+006
1,1090,4.74321e+006
1,1091,4.74123e+006
1,1092,4.74036e+006
1,1093,4.73657e+006
1,1094,4.73231e+006
1,1095,4.73228e+006
1,1096,4.7309e+006
1,1097,4.72902e+006
1,1098,4.72608e+006
1,1099,4.72449e+006
1,1100,4.72103e+006
1,1101,4.71974e+006
1,1102,4.71656e+006
1,1103,4.71476e+006
1,1104,4.71357e+006
1,1105,4.70844e+006
1,1106,4.70672e+006
1,1107,4.70559e+006
1,1108,4.70395e+006
1,1109,4.70332e+006
1,1110,4.69879e+006
1,1111,4.69758e+006
1,1112,4.69666e+006
1,1113,4.69373e+006
1,1114,4.69373e+006
1,1115,4.6886e+006
1,1116,4.68789e+006
1,1117,4.68671e+006
1,1118,4.68471e+006
1,1119,4.68256e+006
1,1120,4.68123e+006
1,1121,4.68059e+006
1,1122,4.6786e+006
1,1123,4.67654e+006
1,1124,4.67419e+006
1,1125,4.67138e+006
1,1126,4.66959e+006
1,1127,4.6666e+006
1,1128,4.66248e+006
1,1129,4.66191e+006
1,1130,4.66033e+006
1,1131,4.65831e+006
1,1132,4.6555e+006
1,1133,4.65565e+006
1,1134,4.65293e+006
1,1135,4.65251e+006
1,1136,4.65291e+006
1,1137,4.65013e+006
1,1138,4.64759e+006
1,1139,4.64444e+006
1,1140,4.64331e+006
1,1141,4.64142e+006
1,1142,4.64045e+006
1,1143,4.63818e+006
1,1144,4.63811e+006
1,1145,4.63546e+006
1,1146,4.62989e+006
1,1147,4.62854e+006
1,1148,4.62701e+006
1,1149,4.62554e+006
1,1150,4.62277e+006
1,1151,4.6208e+006
1,1152,4.61545e+006
1,1153,4.61241e+006
1,1154,4.61117e+006
1,1155,4.61093e+006
1,1156,4.60893e+006
1,1157,4.60685e+006
1,1158,4.6033e+006
1,1159,4.60328e+006
1,1160,4.59989e+006
1,1161,4.59822e+006
1,1162,4.59727e+006
1,1163,4.59506e+006
1,1164,4.59342e+006
1,1165,4.59238e+006
1,1166,4.5931e+006
1,1167,4.58842e+006
1,1168,4.58777e+006
1,1169,4.58691e+006
1,1170,4.58417e+006
1,1171,4.58332e+006
1,1172,4.57973e+006
1,1173,4.58072e+006
1,1174,4.57882e+006
1,1175,4.57462e+006
1,1176,4.57371e+006
1,1177,4.57076e+006
1,1178,4.56853e+006
1,1179,4.56764e+006
1,1180,4.5658e+006
1,1181,4.56346e+006
1,1182,4.5589e+006
1,1183,4.55661e+006
1,1184,4.55492e+006
1,1185,4.5539e+006
1,1186,4.55319e+006
1,1187,4.55012e+006
1,1188,4.54834e+006
1,1189,4.54737e+006
1,1190,4.54657e+006
1,1191,4.54306e+006
1,1192,4.54336e+006
1,1193,4.54106e+006
1,1194,4.53789e+006
1,1195,4.53607e+006
1,1196,4.53587e+006
1,1197,4.53521e+006
1,1198,4.53259e+006
1,1199,4.5319e+006
1,1200,4.52701e+006
1,1201,4.52448e+006
1,1202,4.52598e+006
1,1203,4.52477e+006
1,1204,4.52196e+006
1,1205,4.52203e+006
1,1206,4.51854e+006
1,1207,4.51732e+006
1,1208,4.5171e+006
1,1209,4.51471e+006
1,1210,4.51207e+006
1,1211,4.51173e+006
1,1212,4.50642e+006
1,1213,4.507e+006
1,1214,4.50562e+006
1,1215,4.50441e+006
1,1216,4.50194e+006
1,1217,4.49893e+006
1,1218,4.49991e+006
1,1219,4.49719e+006
1,1220,4.49465e+006
1,1221,4.49426e+006
1,1222,4.49098e+006
1,1223,4.49128e+006
1,1224,4.48783e+006
1,1225,4.48628e+006
1,1226,4.48509e+006
1,1227,4.48173e+006
1,1228,4.47859e+006
1,1229,4.47687e+006
1,1230,4.47448e+006
1,1231,4.47039e+006
1,1232,4.46735e+006
1,1233,4.46625e+006
1,1234,4.46383e+006
1,1235,4.46301e+006
1,1236,4.45967e+006
1,1237,4.459e+006
1,1238,4.45542e+006
1,1239,4.45332e+006
1,1240,4.45075e+006
1,1241,4.44972e+006
1,1242,4.44167e+006
1,1243,4.43856e+006
1,1244,4.43573e+006
1,1245,4.43399e+006
1,1246,4.43133e+006
1,1247,4.42959e+006
1,1248,4.42603e+006
1,1249,4.42212e+006
1,1250,4.41807e+006
1,1251,4.41534e+006
1,1252,4.40913e+006
1,1253,4.4066e+006
1,1254,4.40043e+006
1,1255,4.39687e+006
1,1256,4.3923e+006
1,1257,4.38631e+006
1,1258,4.38307e+006
1,1259,4.3757e+006
1,1260,4.37136e+006
1,1261,4.36815e+006
1,1262,4.36464e+006
1,1263,4.3593e+006
1,1264,4.35458e+006
1,1265,4.34987e+006
1,1266,4.34536e+006
1,1267,4.33791e+006
1,1268,4.33524e+006
1,1269,4.32458e+006
1,1270,4.31946e+006
1,1271,4.31126e+006
1,1272,4.30595e+006
1,1273,4.29669e+006
1,1274,4.28889e+006
1,1275,4.27973e+006
1,1276,4.26969e+006
1,1277,4.26205e+006
1,1278,4.2518e+006
1,1279,4.24309e+006
1,1280,4.23125e+006
1,1281,4.22351e+006
1,1282,4.20976e+006
1,1283,4.20247e+006
1,1284,4.19102e+006
1,1285,4.18149e+006
1,1286,4.17163e+006
1,1287,4.15999e+006
1,1288,4.14791e+006
1,1289,4.13784e+006
1,1290,4.12695e+006
1,1291,4.11573e+006
1,1292,4.10264e+006
1,1293,4.0912e+006
1,1294,4.07823e+006
1,1295,4.06555e+006
1,1296,4.05182e+006
1,1297,4.04039e+006
1,1298,4.02822e+006
1,1299,4.01229e+006
1,1300,4.00088e+006
1,1301,3.9868e+006
1,1302,3.97174e+006
1,1303,3.95438e+006
1,1304,3.94227e+006
1,1305,3.92872e+006
1,1306,3.90759e+006
1,1307,3.8914e+006
1,1308,3.87371e+006
1,1309,3.86044e+006
1,1310,3.84231e+006
1,1311,3.82535e+006
1,1312,3.80759e+006
1,1313,3.78937e+006
1,1314,3.7708e+006
1,1315,3.75179e+006
1,1316,3.73183e+006
1,1317,3.70945e+006
1,1318,3.69115e+006
1,1319,3.67149e+006
1,1320,3.64824e+006
1,1321,3.62321e+006
1,1322,3.59737e+006
1,1323,3.57414e+006
1,1324,3.54898e+006
1,1325,3.52203e+006
1,1326,3.50147e+006
1,1327,3.47617e+006
1,1328,3.45258e+006
1,1329,3.42687e+006
1,1330,3.40588e+006
1,1331,3.37947e+006
1,1332,3.3536e+006
1,1333,3.329e+006
1,1334,3.30432e+006
1,1335,3.27777e+006
1,1336,3.25457e+006
1,1337,3.23367e+006
1,1338,3.20754e+006
1,1339,3.184e+006
1,1340,3.12792e+006
