1,1,68373
1,2,68382
1,3,68389
1,4,68461
1,5,68510
1,6,68514
1,7,68607
1,8,68675
1,9,68674
1,10,68696
1,11,68764
1,12,68799
1,13,68857
1,14,68951
1,15,68963
1,16,69007
1,17,69028
1,18,69238
1,19,69103
1,20,69183
1,21,69272
1,22,69301
1,23,69323
1,24,69430
1,25,69524
1,26,69592
1,27,69554
1,28,69611
1,29,69634
1,30,69745
1,31,69774
1,32,69809
1,33,69876
1,34,69852
1,35,69884
1,36,69993
1,37,70087
1,38,70094
1,39,70216
1,40,70193
1,41,70289
1,42,70293
1,43,70532
1,44,70754
1,45,70596
1,46,70697
1,47,70727
1,48,70777
1,49,70903
1,50,70940
1,51,70980
1,52,71062
1,53,71251
1,54,71295
1,55,71390
1,56,71527
1,57,71563
1,58,71834
1,59,71778
1,60,71921
1,61,71940
1,62,72173
1,63,72298
1,64,72386
1,65,72522
1,66,72761
1,67,72907
1,68,73111
1,69,73258
1,70,73497
1,71,73742
1,72,73987
1,73,74191
1,74,74657
1,75,74655
1,76,74859
1,77,75137
1,78,75306
1,79,75602
1,80,75909
1,81,76003
1,82,76342
1,83,76695
1,84,76913
1,85,77487
1,86,78318
1,87,79477
1,88,80967
1,89,82678
1,90,84617
1,91,86908
1,92,89738
1,93,93466
1,94,97702
1,95,103160
1,96,109801
1,97,119494
1,98,135560
1,99,159499
1,100,199345
1,101,265174
1,102,355791
1,103,469874
1,104,592069
1,105,703364
1,106,775740
1,107,790216
1,108,726950
1,109,604644
1,110,475536
1,111,332212
1,112,226528
1,113,152415
1,114,124069
1,115,108650
1,116,100455
1,117,95770
1,118,92482
1,119,89556
1,120,86398
1,121,84094
1,122,81336
1,123,78467
1,124,75966
1,125,74209
1,126,72727
1,127,71628
1,128,70709
1,129,70061
1,130,69526
1,131,69039
1,132,68729
1,133,68435
1,134,68342
1,135,68051
1,136,67773
1,137,67559
1,138,67491
1,139,67328
1,140,67225
1,141,67105
1,142,66905
1,143,66814
1,144,66711
1,145,66611
1,146,66484
1,147,66463
1,148,66397
1,149,66391
1,150,66409
1,151,66342
1,152,66282
1,153,66251
1,154,66296
1,155,66237
1,156,66245
1,157,66199
1,158,66198
1,159,66258
1,160,66207
1,161,66249
1,162,66260
1,163,66222
1,164,66225
1,165,66336
1,166,66328
1,167,66293
1,168,66308
1,169,66423
1,170,66475
1,171,66543
1,172,66518
1,173,66596
1,174,66569
1,175,66625
1,176,66749
1,177,66750
1,178,66789
1,179,66849
1,180,66862
1,181,66853
1,182,66990
1,183,67001
1,184,67037
1,185,67032
1,186,67096
1,187,67084
1,188,66988
1,189,67086
1,190,67059
1,191,67141
1,192,67048
1,193,67131
1,194,67180
1,195,67287
1,196,67363
1,197,67574
1,198,67766
1,199,67973
1,200,68312
1,201,68698
1,202,69133
1,203,69459
1,204,69762
1,205,70105
1,206,70389
1,207,70643
1,208,70838
1,209,71063
1,210,71382
1,211,71663
1,212,71808
1,213,72190
1,214,72481
1,215,72558
1,216,72701
1,217,72891
1,218,73091
1,219,73333
1,220,73789
1,221,74433
1,222,74790
1,223,75195
1,224,75673
1,225,75995
1,226,76380
1,227,76849
1,228,77492
1,229,78207
1,230,78792
1,231,79528
1,232,80117
1,233,80708
1,234,81190
1,235,81592
1,236,82115
1,237,82584
1,238,83031
1,239,83583
1,240,83769
1,241,83955
1,242,83999
1,243,83969
1,244,83659
1,245,83543
1,246,83312
1,247,82902
1,248,82942
1,249,82846
1,250,82837
1,251,82780
1,252,82587
1,253,82619
1,254,82319
1,255,82431
1,256,82160
1,257,82135
1,258,82302
1,259,82266
1,260,82292
1,261,82371
1,262,82524
1,263,82502
1,264,82622
1,265,82673
1,266,82768
1,267,82617
1,268,82859
1,269,82944
1,270,83104
1,271,83233
1,272,83328
1,273,83298
1,274,83610
1,275,83683
1,276,83904
1,277,84174
1,278,84348
1,279,84645
1,280,84834
1,281,85415
1,282,85670
1,283,86207
1,284,86455
1,285,86768
1,286,87313
1,287,87447
1,288,87679
1,289,88139
1,290,88480
1,291,88600
1,292,88905
1,293,88805
1,294,88894
1,295,88894
1,296,88688
1,297,88678
1,298,88555
1,299,88361
1,300,88084
1,301,87836
1,302,87524
1,303,87297
1,304,87153
1,305,87048
1,306,86545
1,307,86580
1,308,86241
1,309,86236
1,310,86259
1,311,86306
1,312,86263
1,313,86244
1,314,86470
1,315,86353
1,316,86373
1,317,86364
1,318,86389
1,319,86375
1,320,86321
1,321,86127
1,322,86131
1,323,86041
1,324,86184
1,325,86115
1,326,86070
1,327,86273
1,328,86424
1,329,86851
1,330,86893
1,331,87278
1,332,87475
1,333,87833
1,334,88145
1,335,88360
1,336,88349
1,337,88648
1,338,88749
1,339,88779
1,340,88707
1,341,89032
1,342,88839
1,343,88692
1,344,88587
1,345,88528
1,346,88303
1,347,88070
1,348,87972
1,349,87937
1,350,87868
1,351,87615
1,352,87612
1,353,87609
1,354,87731
1,355,87878
1,356,87926
1,357,88028
1,358,88435
1,359,88302
1,360,88381
1,361,88592
1,362,88741
1,363,88849
1,364,89176
1,365,89473
1,366,90047
1,367,90416
1,368,90983
1,369,91394
1,370,91922
1,371,92473
1,372,92691
1,373,93042
1,374,93278
1,375,93296
1,376,93377
1,377,93227
1,378,93369
1,379,93415
1,380,93383
1,381,93189
1,382,93452
1,383,93563
1,384,93662
1,385,93619
1,386,93521
1,387,93389
1,388,93176
1,389,92695
1,390,92222
1,391,91716
1,392,91281
1,393,90836
1,394,90427
1,395,90118
1,396,89747
1,397,89588
1,398,89519
1,399,89313
1,400,89307
1,401,89560
1,402,89464
1,403,89540
1,404,89857
1,405,89911
1,406,90202
1,407,90066
1,408,90332
1,409,90318
1,410,90480
1,411,90516
1,412,90775
1,413,90447
1,414,90647
1,415,90470
1,416,90369
1,417,90356
1,418,90636
1,419,90518
1,420,90402
1,421,90447
1,422,90364
1,423,90398
1,424,90529
1,425,90510
1,426,90577
1,427,90600
1,428,90703
1,429,91102
1,430,91166
1,431,91383
1,432,91595
1,433,91627
1,434,91621
1,435,91423
1,436,91365
1,437,91160
1,438,90784
1,439,90709
1,440,90401
1,441,90260
1,442,90011
1,443,89676
1,444,89461
1,445,89322
1,446,89309
1,447,89106
1,448,88851
1,449,88730
1,450,88668
1,451,88568
1,452,88552
1,453,88453
1,454,88316
1,455,88145
1,456,88091
1,457,88088
1,458,88117
1,459,88067
1,460,87952
1,461,87903
1,462,87915
1,463,87826
1,464,87935
1,465,87832
1,466,87937
1,467,88013
1,468,87896
1,469,87935
1,470,88175
1,471,88238
1,472,88271
1,473,88320
1,474,88375
1,475,88521
1,476,88546
1,477,88691
1,478,88701
1,479,88854
1,480,88810
1,481,88852
1,482,89083
1,483,89275
1,484,89370
1,485,89336
1,486,89775
1,487,89858
1,488,89879
1,489,89969
1,490,90097
1,491,90263
1,492,90371
1,493,89935
1,494,90091
1,495,89970
1,496,89648
1,497,89358
1,498,89153
1,499,88849
1,500,88472
1,501,88322
1,502,88257
1,503,87769
1,504,87883
1,505,87710
1,506,87448
1,507,87484
1,508,87747
1,509,87582
1,510,87575
1,511,87355
1,512,87420
1,513,87500
1,514,87518
1,515,87681
1,516,87680
1,517,87597
1,518,87602
1,519,87667
1,520,87667
1,521,87811
1,522,87851
1,523,88026
1,524,87991
1,525,88108
1,526,88344
1,527,88430
1,528,88771
1,529,88973
1,530,89320
1,531,89614
1,532,90184
1,533,90693
1,534,91694
1,535,92596
1,536,94020
1,537,95258
1,538,96706
1,539,98038
1,540,99285
1,541,100470
1,542,101364
1,543,102075
1,544,102674
1,545,103012
1,546,102628
1,547,102363
1,548,102222
1,549,101346
1,550,100896
1,551,100195
1,552,99472
1,553,98869
1,554,98228
1,555,97545
1,556,96921
1,557,96457
1,558,96094
1,559,95480
1,560,95163
1,561,94773
1,562,94624
1,563,94361
1,564,94070
1,565,93566
1,566,93411
1,567,92944
1,568,92570
1,569,92278
1,570,91946
1,571,91606
1,572,91236
1,573,90993
1,574,90781
1,575,90587
1,576,90641
1,577,90565
1,578,90545
1,579,90712
1,580,90880
1,581,90952
1,582,91366
1,583,91246
1,584,91904
1,585,91998
1,586,92332
1,587,92633
1,588,92920
1,589,92915
1,590,93117
1,591,93298
1,592,93409
1,593,93562
1,594,93636
1,595,93447
1,596,93534
1,597,93320
1,598,93114
1,599,92974
1,600,92843
1,601,92603
1,602,92430
1,603,91980
1,604,91874
1,605,91632
1,606,91530
1,607,91306
1,608,91025
1,609,90735
1,610,90894
1,611,90759
1,612,90429
1,613,90341
1,614,90024
1,615,90109
1,616,90263
1,617,89896
1,618,90014
1,619,89832
1,620,90081
1,621,90198
1,622,90314
1,623,90231
1,624,90439
1,625,90553
1,626,90569
1,627,90898
1,628,90940
1,629,91138
1,630,91565
1,631,91813
1,632,91857
1,633,92093
1,634,92321
1,635,92364
1,636,92441
1,637,92595
1,638,92695
1,639,92918
1,640,92906
1,641,93088
1,642,93265
1,643,93729
1,644,93811
1,645,94110
1,646,94588
1,647,94757
1,648,95059
1,649,95234
1,650,95631
1,651,95799
1,652,95987
1,653,96274
1,654,96456
1,655,96733
1,656,96977
1,657,97382
1,658,97753
1,659,98220
1,660,98554
1,661,99267
1,662,99890
1,663,100426
1,664,101038
1,665,101821
1,666,102316
1,667,103068
1,668,103645
1,669,104138
1,670,104894
1,671,104897
1,672,105240
1,673,105743
1,674,105801
1,675,105921
1,676,106321
1,677,106514
1,678,106419
1,679,106423
1,680,106352
1,681,106832
1,682,105904
1,683,105851
1,684,105293
1,685,105203
1,686,104597
1,687,104182
1,688,103528
1,689,102955
1,690,102530
1,691,102701
1,692,102631
1,693,101723
1,694,100665
1,695,99878
1,696,99697
1,697,99854
1,698,100144
1,699,100235
1,700,100657
1,701,101001
1,702,101323
1,703,101619
1,704,101825
1,705,101852
1,706,102163
1,707,102391
1,708,102383
1,709,102744
1,710,102877
1,711,103244
1,712,103485
1,713,103869
1,714,104109
1,715,104309
1,716,104253
1,717,104405
1,718,104617
1,719,104633
1,720,104350
1,721,103861
1,722,103850
1,723,103395
1,724,102882
1,725,102305
1,726,101304
1,727,100712
1,728,100067
1,729,99273
1,730,98722
1,731,97946
1,732,97619
1,733,97099
1,734,96780
1,735,96417
1,736,96060
1,737,95871
1,738,95625
1,739,95427
1,740,94900
1,741,94634
1,742,94568
1,743,94107
1,744,93986
1,745,93812
1,746,93690
1,747,93527
1,748,93316
1,749,93214
1,750,93260
1,751,93224
1,752,93230
1,753,93236
1,754,93299
1,755,93320
1,756,93252
1,757,93154
1,758,93296
1,759,93125
1,760,93199
1,761,93345
1,762,93156
1,763,93276
1,764,93391
1,765,93415
1,766,93355
1,767,93408
1,768,93520
1,769,93561
1,770,93573
1,771,93607
1,772,93568
1,773,93800
1,774,93695
1,775,93751
1,776,93714
1,777,93880
1,778,93794
1,779,93865
1,780,93930
1,781,94125
1,782,94118
1,783,94274
1,784,94497
1,785,94479
1,786,94589
1,787,94626
1,788,94812
1,789,94876
1,790,95102
1,791,95310
1,792,95407
1,793,95387
1,794,95569
1,795,95533
1,796,95785
1,797,95853
1,798,95979
1,799,96078
1,800,96189
1,801,96151
1,802,96219
1,803,96106
1,804,96211
1,805,95964
1,806,95703
1,807,95906
1,808,95789
1,809,95613
1,810,95510
1,811,95519
1,812,95148
1,813,94818
1,814,94671
1,815,94572
1,816,94311
1,817,94231
1,818,93886
1,819,93973
1,820,93818
1,821,93807
1,822,93626
1,823,93676
1,824,93637
1,825,93781
1,826,93992
1,827,93912
1,828,93892
1,829,94258
1,830,94392
1,831,94699
1,832,95042
1,833,95388
1,834,95735
1,835,96323
1,836,96683
1,837,97206
1,838,97413
1,839,97882
1,840,98133
1,841,98449
1,842,98804
1,843,98841
1,844,98894
1,845,99056
1,846,98833
1,847,98861
1,848,99191
1,849,98905
1,850,98902
1,851,98962
1,852,99028
1,853,98824
1,854,98914
1,855,98810
1,856,98632
1,857,98869
1,858,98975
1,859,98801
1,860,98857
1,861,98832
1,862,98899
1,863,99265
1,864,99352
1,865,99371
1,866,99300
1,867,99215
1,868,99380
1,869,99412
1,870,99485
1,871,99489
1,872,99416
1,873,99106
1,874,99012
1,875,99045
1,876,98785
1,877,98804
1,878,98516
1,879,98126
1,880,98213
1,881,97855
1,882,97910
1,883,97597
1,884,97395
1,885,97306
1,886,96927
1,887,96829
1,888,96717
1,889,96517
1,890,96240
1,891,96094
1,892,96087
1,893,96054
1,894,95731
1,895,95630
1,896,95553
1,897,95424
1,898,95302
1,899,95156
1,900,95013
1,901,94820
1,902,94539
1,903,94587
1,904,94406
1,905,94081
1,906,94140
1,907,94172
1,908,94113
1,909,93706
1,910,93721
1,911,93581
1,912,93528
1,913,93725
1,914,93425
1,915,93536
1,916,93548
1,917,93744
1,918,93925
1,919,94300
1,920,94625
1,921,95035
1,922,95499
1,923,96153
1,924,96695
1,925,97438
1,926,98115
1,927,98625
1,928,99193
1,929,99459
1,930,99494
1,931,99552
1,932,99205
1,933,98859
1,934,98392
1,935,97854
1,936,97095
1,937,96613
1,938,95783
1,939,94856
1,940,94253
1,941,93657
1,942,92907
1,943,92520
1,944,91988
1,945,91460
1,946,91055
1,947,90871
1,948,90420
1,949,90140
1,950,89899
1,951,89871
1,952,89686
1,953,89390
1,954,89227
1,955,89368
1,956,89160
1,957,89225
1,958,88955
1,959,89086
1,960,88876
1,961,88843
1,962,88632
1,963,88677
1,964,88758
1,965,88614
1,966,88547
1,967,88455
1,968,88438
1,969,88496
1,970,88550
1,971,88333
1,972,88333
1,973,88353
1,974,88150
1,975,88197
1,976,88377
1,977,88141
1,978,88180
1,979,88225
1,980,88032
1,981,88134
1,982,88054
1,983,88091
1,984,87952
1,985,88046
1,986,88048
1,987,88027
1,988,87868
1,989,87754
1,990,87795
1,991,87924
1,992,88016
1,993,87906
1,994,87861
1,995,87750
1,996,87668
1,997,87706
1,998,87686
1,999,87756
1,1000,87666
1,1001,87653
1,1002,87760
1,1003,87725
1,1004,87689
1,1005,87671
1,1006,87723
1,1007,87747
1,1008,87495
1,1009,87757
1,1010,87513
1,1011,87495
1,1012,87558
1,1013,87602
1,1014,87520
1,1015,87510
1,1016,87595
1,1017,87722
1,1018,87609
1,1019,87583
1,1020,87546
1,1021,87321
1,1022,87362
1,1023,87365
1,1024,87125
1,1025,87300
1,1026,87243
1,1027,87324
1,1028,87157
1,1029,87266
1,1030,87190
1,1031,87278
1,1032,87225
1,1033,87164
1,1034,87274
1,1035,87031
1,1036,87176
1,1037,87100
1,1038,87142
1,1039,87143
1,1040,87096
1,1041,87321
1,1042,87071
1,1043,87168
1,1044,86968
1,1045,86965
1,1046,87102
1,1047,87040
1,1048,87009
1,1049,86931
1,1050,86836
1,1051,87004
1,1052,86911
1,1053,86832
1,1054,86768
1,1055,86960
1,1056,86853
1,1057,86893
1,1058,86874
1,1059,86831
1,1060,86623
1,1061,86704
1,1062,86750
1,1063,86865
1,1064,86743
1,1065,86755
1,1066,86728
1,1067,86775
1,1068,86777
1,1069,86580
1,1070,86418
1,1071,86396
1,1072,86505
1,1073,86411
1,1074,86540
1,1075,86471
1,1076,86248
1,1077,86189
1,1078,86253
1,1079,86197
1,1080,86228
1,1081,86138
1,1082,86261
1,1083,86121
1,1084,86141
1,1085,86030
1,1086,85981
1,1087,85937
1,1088,85915
1,1089,85802
1,1090,85915
1,1091,85744
1,1092,85827
1,1093,85664
1,1094,85725
1,1095,85779
1,1096,85799
1,1097,85658
1,1098,85689
1,1099,85615
1,1100,85573
1,1101,85562
1,1102,85537
1,1103,85643
1,1104,85446
1,1105,85443
1,1106,85533
1,1107,85426
1,1108,85211
1,1109,85061
1,1110,85116
1,1111,85129
1,1112,85183
1,1113,84966
1,1114,85068
1,1115,85087
1,1116,84927
1,1117,84963
1,1118,84994
1,1119,84829
1,1120,84971
1,1121,84884
1,1122,84736
1,1123,84913
1,1124,84754
1,1125,84842
1,1126,84707
1,1127,84573
1,1128,84657
1,1129,84650
1,1130,84674
1,1131,84489
1,1132,84441
1,1133,84485
1,1134,84483
1,1135,84514
1,1136,84435
1,1137,84402
1,1138,84416
1,1139,84434
1,1140,84284
1,1141,84315
1,1142,84425
1,1143,84292
1,1144,84217
1,1145,84243
1,1146,84619
1,1147,84157
1,1148,84111
1,1149,84125
1,1150,84128
1,1151,84063
1,1152,84184
1,1153,83883
1,1154,83946
1,1155,84067
1,1156,83981
1,1157,83868
1,1158,83855
1,1159,83807
1,1160,83840
1,1161,83591
1,1162,83708
1,1163,83717
1,1164,83588
1,1165,83587
1,1166,83587
1,1167,83662
1,1168,83489
1,1169,83686
1,1170,83451
1,1171,83354
1,1172,83441
1,1173,83278
1,1174,83223
1,1175,83240
1,1176,83282
1,1177,83307
1,1178,83299
1,1179,83149
1,1180,83264
1,1181,83134
1,1182,83270
1,1183,83121
1,1184,83101
1,1185,83018
1,1186,83028
1,1187,83091
1,1188,83051
1,1189,83048
1,1190,83003
1,1191,82900
1,1192,82905
1,1193,82864
1,1194,82767
1,1195,82787
1,1196,82722
1,1197,82745
1,1198,82641
1,1199,82683
1,1200,82489
1,1201,82703
1,1202,82618
1,1203,82599
1,1204,82364
1,1205,82386
1,1206,82528
1,1207,82416
1,1208,82538
1,1209,82358
1,1210,82380
1,1211,82394
1,1212,82434
1,1213,82363
1,1214,82323
1,1215,82151
1,1216,82405
1,1217,82305
1,1218,82280
1,1219,82232
1,1220,82331
1,1221,82052
1,1222,82158
1,1223,82266
1,1224,82026
1,1225,81888
1,1226,81997
1,1227,81964
1,1228,81921
1,1229,81877
1,1230,81960
1,1231,81742
1,1232,81858
1,1233,81777
1,1234,81699
1,1235,81681
1,1236,81809
1,1237,81584
1,1238,81617
1,1239,81658
1,1240,81492
1,1241,81510
1,1242,81506
1,1243,81375
1,1244,81383
1,1245,81375
1,1246,81285
1,1247,81266
1,1248,81365
1,1249,81360
1,1250,81255
1,1251,81317
1,1252,81309
1,1253,81320
1,1254,81062
1,1255,81080
1,1256,80875
1,1257,81132
1,1258,80877
1,1259,80777
1,1260,80718
1,1261,80609
1,1262,80753
1,1263,80554
1,1264,80506
1,1265,80541
1,1266,80572
1,1267,80393
1,1268,80518
1,1269,80365
1,1270,80306
1,1271,80248
1,1272,80282
1,1273,80133
1,1274,80131
1,1275,79986
1,1276,79991
1,1277,79978
1,1278,79861
1,1279,79737
1,1280,79796
1,1281,79673
1,1282,79493
1,1283,79617
1,1284,79448
1,1285,79484
1,1286,79345
1,1287,79151
1,1288,79172
1,1289,79039
1,1290,79081
1,1291,78933
1,1292,78890
1,1293,78778
1,1294,78654
1,1295,78518
1,1296,78628
1,1297,78614
1,1298,78562
1,1299,78389
1,1300,78187
1,1301,78186
1,1302,78013
1,1303,78028
1,1304,78136
1,1305,78094
1,1306,77844
1,1307,77698
1,1308,77664
1,1309,77562
1,1310,77524
1,1311,77520
1,1312,77443
1,1313,77326
1,1314,77263
1,1315,77181
1,1316,77149
1,1317,77002
1,1318,76944
1,1319,76928
1,1320,76795
1,1321,76781
1,1322,76620
1,1323,76636
1,1324,76526
1,1325,76435
1,1326,76382
1,1327,76221
1,1328,76250
1,1329,76070
1,1330,76075
1,1331,75930
1,1332,75933
1,1333,75757
1,1334,75716
1,1335,75620
1,1336,75506
1,1337,75436
1,1338,75319
1,1339,74965
1,1340,83516
