1,1,100927
1,2,101271
1,3,101945
1,4,102691
1,5,103206
1,6,103851
1,7,104511
1,8,105075
1,9,105958
1,10,106508
1,11,107029
1,12,107962
1,13,108548
1,14,109322
1,15,109923
1,16,110906
1,17,111719
1,18,112427
1,19,113110
1,20,113726
1,21,114633
1,22,115504
1,23,116114
1,24,116855
1,25,117755
1,26,118605
1,27,119203
1,28,120017
1,29,120829
1,30,121698
1,31,122457
1,32,123297
1,33,124343
1,34,125081
1,35,126052
1,36,127042
1,37,127759
1,38,128842
1,39,129614
1,40,130457
1,41,131449
1,42,132496
1,43,133239
1,44,134319
1,45,135359
1,46,136323
1,47,137178
1,48,138062
1,49,139218
1,50,140348
1,51,141223
1,52,142329
1,53,143176
1,54,144513
1,55,145568
1,56,146926
1,57,148344
1,58,149344
1,59,150401
1,60,151709
1,61,153219
1,62,154369
1,63,155702
1,64,156611
1,65,158550
1,66,159794
1,67,161193
1,68,162595
1,69,164203
1,70,165192
1,71,166473
1,72,168103
1,73,169463
1,74,170638
1,75,171129
1,76,171864
1,77,172327
1,78,171596
1,79,171089
1,80,169474
1,81,167425
1,82,164500
1,83,160633
1,84,156710
1,85,152273
1,86,147825
1,87,143497
1,88,139690
1,89,135236
1,90,132084
1,91,129219
1,92,126584
1,93,125250
1,94,125379
1,95,126817
1,96,129545
1,97,134882
1,98,148243
1,99,169164
1,100,203700
1,101,261368
1,102,350808
1,103,449023
1,104,542420
1,105,660555
1,106,709031
1,107,700841
1,108,663232
1,109,568765
1,110,441282
1,111,305453
1,112,218478
1,113,148786
1,114,124153
1,115,108432
1,116,100941
1,117,97594
1,118,93965
1,119,90949
1,120,88391
1,121,86092
1,122,83297
1,123,80600
1,124,78898
1,125,77220
1,126,76002
1,127,74727
1,128,73896
1,129,73443
1,130,72769
1,131,72451
1,132,72056
1,133,71813
1,134,71785
1,135,71364
1,136,71162
1,137,71042
1,138,70962
1,139,70936
1,140,70713
1,141,70602
1,142,70379
1,143,70494
1,144,70336
1,145,70314
1,146,70226
1,147,70268
1,148,70267
1,149,70215
1,150,70240
1,151,70215
1,152,70180
1,153,70198
1,154,70311
1,155,70226
1,156,70331
1,157,70262
1,158,70189
1,159,70362
1,160,70424
1,161,70415
1,162,70554
1,163,70518
1,164,70615
1,165,70760
1,166,70914
1,167,70837
1,168,71005
1,169,71114
1,170,71225
1,171,71373
1,172,71369
1,173,71607
1,174,71682
1,175,71770
1,176,71932
1,177,72059
1,178,72131
1,179,72313
1,180,72546
1,181,72639
1,182,72713
1,183,72894
1,184,73106
1,185,73135
1,186,73287
1,187,73396
1,188,73656
1,189,73946
1,190,74158
1,191,74595
1,192,75038
1,193,75836
1,194,76661
1,195,77972
1,196,79420
1,197,81129
1,198,83341
1,199,85757
1,200,89014
1,201,93355
1,202,98706
1,203,104564
1,204,110550
1,205,116841
1,206,123347
1,207,129984
1,208,138019
1,209,147386
1,210,158196
1,211,169729
1,212,181902
1,213,193567
1,214,204197
1,215,213489
1,216,223768
1,217,234212
1,218,246334
1,219,261250
1,220,275766
1,221,291206
1,222,304448
1,223,316148
1,224,326791
1,225,336363
1,226,346661
1,227,357542
1,228,369547
1,229,382956
1,230,397723
1,231,410783
1,232,422795
1,233,433320
1,234,443407
1,235,451914
1,236,461618
1,237,472240
1,238,483660
1,239,495673
1,240,509261
1,241,521862
1,242,533364
1,243,544095
1,244,553068
1,245,561414
1,246,571772
1,247,580871
1,248,590358
1,249,603511
1,250,614621
1,251,626640
1,252,637744
1,253,648642
1,254,658434
1,255,667466
1,256,676691
1,257,686360
1,258,696653
1,259,708254
1,260,718901
1,261,730186
1,262,741143
1,263,752309
1,264,761289
1,265,771027
1,266,779091
1,267,788802
1,268,798170
1,269,808096
1,270,818316
1,271,828275
1,272,837770
1,273,847498
1,274,855529
1,275,864178
1,276,872995
1,277,881404
1,278,889220
1,279,896335
1,280,904931
1,281,913287
1,282,921371
1,283,928429
1,284,935303
1,285,943797
1,286,950983
1,287,957156
1,288,962787
1,289,970245
1,290,976340
1,291,985051
1,292,992497
1,293,997929
1,294,1.00572e+006
1,295,1.0121e+006
1,296,1.01754e+006
1,297,1.02323e+006
1,298,1.0292e+006
1,299,1.03531e+006
1,300,1.04161e+006
1,301,1.04715e+006
1,302,1.05242e+006
1,303,1.05802e+006
1,304,1.06412e+006
1,305,1.06957e+006
1,306,1.07465e+006
1,307,1.07887e+006
1,308,1.08383e+006
1,309,1.08916e+006
1,310,1.09377e+006
1,311,1.09885e+006
1,312,1.10538e+006
1,313,1.11075e+006
1,314,1.11485e+006
1,315,1.1198e+006
1,316,1.12595e+006
1,317,1.13103e+006
1,318,1.13668e+006
1,319,1.1408e+006
1,320,1.14607e+006
1,321,1.15091e+006
1,322,1.15726e+006
1,323,1.16124e+006
1,324,1.16798e+006
1,325,1.17199e+006
1,326,1.17744e+006
1,327,1.18157e+006
1,328,1.18826e+006
1,329,1.19411e+006
1,330,1.19876e+006
1,331,1.20493e+006
1,332,1.21019e+006
1,333,1.21564e+006
1,334,1.22105e+006
1,335,1.22625e+006
1,336,1.23258e+006
1,337,1.23864e+006
1,338,1.24304e+006
1,339,1.25099e+006
1,340,1.25666e+006
1,341,1.26532e+006
1,342,1.27127e+006
1,343,1.27865e+006
1,344,1.28318e+006
1,345,1.2894e+006
1,346,1.29608e+006
1,347,1.30456e+006
1,348,1.31127e+006
1,349,1.31818e+006
1,350,1.32533e+006
1,351,1.33189e+006
1,352,1.34156e+006
1,353,1.34783e+006
1,354,1.35632e+006
1,355,1.36443e+006
1,356,1.37193e+006
1,357,1.38069e+006
1,358,1.38879e+006
1,359,1.39645e+006
1,360,1.40554e+006
1,361,1.414e+006
1,362,1.42293e+006
1,363,1.43121e+006
1,364,1.44113e+006
1,365,1.45119e+006
1,366,1.46109e+006
1,367,1.47122e+006
1,368,1.48215e+006
1,369,1.49187e+006
1,370,1.50032e+006
1,371,1.51061e+006
1,372,1.52228e+006
1,373,1.5327e+006
1,374,1.54509e+006
1,375,1.55369e+006
1,376,1.56602e+006
1,377,1.57583e+006
1,378,1.58876e+006
1,379,1.59979e+006
1,380,1.61187e+006
1,381,1.62208e+006
1,382,1.63498e+006
1,383,1.64749e+006
1,384,1.66034e+006
1,385,1.6709e+006
1,386,1.68198e+006
1,387,1.69391e+006
1,388,1.70652e+006
1,389,1.72164e+006
1,390,1.73448e+006
1,391,1.74882e+006
1,392,1.76166e+006
1,393,1.77326e+006
1,394,1.78767e+006
1,395,1.80118e+006
1,396,1.81393e+006
1,397,1.82954e+006
1,398,1.84181e+006
1,399,1.85502e+006
1,400,1.86946e+006
1,401,1.88485e+006
1,402,1.8984e+006
1,403,1.91355e+006
1,404,1.92902e+006
1,405,1.94147e+006
1,406,1.95573e+006
1,407,1.96919e+006
1,408,1.9849e+006
1,409,1.99979e+006
1,410,2.01336e+006
1,411,2.02861e+006
1,412,2.04366e+006
1,413,2.05778e+006
1,414,2.07238e+006
1,415,2.08759e+006
1,416,2.10252e+006
1,417,2.11603e+006
1,418,2.12927e+006
1,419,2.14448e+006
1,420,2.15939e+006
1,421,2.17559e+006
1,422,2.19133e+006
1,423,2.20463e+006
1,424,2.22087e+006
1,425,2.2341e+006
1,426,2.25025e+006
1,427,2.26345e+006
1,428,2.27712e+006
1,429,2.2905e+006
1,430,2.3053e+006
1,431,2.3209e+006
1,432,2.33498e+006
1,433,2.35096e+006
1,434,2.36555e+006
1,435,2.37776e+006
1,436,2.3892e+006
1,437,2.40276e+006
1,438,2.41689e+006
1,439,2.42844e+006
1,440,2.44475e+006
1,441,2.45836e+006
1,442,2.47061e+006
1,443,2.48466e+006
1,444,2.49697e+006
1,445,2.50899e+006
1,446,2.52444e+006
1,447,2.53651e+006
1,448,2.54812e+006
1,449,2.56052e+006
1,450,2.56914e+006
1,451,2.58722e+006
1,452,2.59975e+006
1,453,2.61272e+006
1,454,2.62218e+006
1,455,2.63552e+006
1,456,2.64586e+006
1,457,2.66069e+006
1,458,2.67089e+006
1,459,2.68184e+006
1,460,2.69272e+006
1,461,2.70444e+006
1,462,2.71613e+006
1,463,2.72498e+006
1,464,2.7358e+006
1,465,2.74928e+006
1,466,2.75924e+006
1,467,2.77249e+006
1,468,2.78391e+006
1,469,2.79366e+006
1,470,2.80588e+006
1,471,2.81606e+006
1,472,2.82718e+006
1,473,2.83771e+006
1,474,2.84906e+006
1,475,2.86023e+006
1,476,2.86892e+006
1,477,2.88167e+006
1,478,2.89047e+006
1,479,2.8999e+006
1,480,2.91042e+006
1,481,2.92136e+006
1,482,2.93195e+006
1,483,2.94053e+006
1,484,2.95183e+006
1,485,2.96044e+006
1,486,2.9691e+006
1,487,2.97553e+006
1,488,2.98626e+006
1,489,2.99767e+006
1,490,3.0068e+006
1,491,3.01905e+006
1,492,3.02783e+006
1,493,3.03499e+006
1,494,3.04935e+006
1,495,3.06002e+006
1,496,3.07028e+006
1,497,3.07982e+006
1,498,3.08828e+006
1,499,3.10345e+006
1,500,3.11276e+006
1,501,3.1223e+006
1,502,3.13219e+006
1,503,3.1406e+006
1,504,3.15159e+006
1,505,3.16095e+006
1,506,3.17475e+006
1,507,3.18327e+006
1,508,3.19629e+006
1,509,3.20799e+006
1,510,3.21828e+006
1,511,3.23018e+006
1,512,3.23581e+006
1,513,3.24669e+006
1,514,3.25937e+006
1,515,3.2696e+006
1,516,3.28028e+006
1,517,3.29261e+006
1,518,3.30543e+006
1,519,3.31824e+006
1,520,3.32798e+006
1,521,3.34036e+006
1,522,3.35083e+006
1,523,3.36333e+006
1,524,3.37726e+006
1,525,3.3872e+006
1,526,3.40162e+006
1,527,3.41285e+006
1,528,3.4277e+006
1,529,3.4403e+006
1,530,3.44895e+006
1,531,3.46304e+006
1,532,3.47812e+006
1,533,3.48819e+006
1,534,3.50499e+006
1,535,3.51476e+006
1,536,3.52818e+006
1,537,3.53868e+006
1,538,3.55327e+006
1,539,3.56588e+006
1,540,3.58034e+006
1,541,3.59171e+006
1,542,3.60444e+006
1,543,3.61509e+006
1,544,3.62771e+006
1,545,3.64185e+006
1,546,3.65373e+006
1,547,3.6627e+006
1,548,3.67706e+006
1,549,3.68926e+006
1,550,3.69751e+006
1,551,3.70775e+006
1,552,3.7198e+006
1,553,3.73273e+006
1,554,3.74104e+006
1,555,3.7544e+006
1,556,3.76394e+006
1,557,3.77286e+006
1,558,3.78365e+006
1,559,3.79562e+006
1,560,3.80639e+006
1,561,3.81651e+006
1,562,3.82489e+006
1,563,3.83673e+006
1,564,3.84477e+006
1,565,3.85208e+006
1,566,3.86221e+006
1,567,3.87252e+006
1,568,3.88099e+006
1,569,3.89324e+006
1,570,3.90191e+006
1,571,3.91001e+006
1,572,3.92195e+006
1,573,3.93036e+006
1,574,3.93712e+006
1,575,3.94528e+006
1,576,3.95392e+006
1,577,3.96398e+006
1,578,3.97312e+006
1,579,3.97957e+006
1,580,3.9866e+006
1,581,3.99603e+006
1,582,4.00324e+006
1,583,4.00987e+006
1,584,4.02137e+006
1,585,4.02644e+006
1,586,4.0335e+006
1,587,4.0397e+006
1,588,4.04775e+006
1,589,4.05106e+006
1,590,4.05846e+006
1,591,4.06631e+006
1,592,4.06856e+006
1,593,4.07812e+006
1,594,4.08163e+006
1,595,4.09024e+006
1,596,4.09531e+006
1,597,4.10023e+006
1,598,4.10493e+006
1,599,4.11125e+006
1,600,4.11609e+006
1,601,4.12092e+006
1,602,4.12572e+006
1,603,4.13002e+006
1,604,4.13309e+006
1,605,4.13513e+006
1,606,4.14151e+006
1,607,4.14192e+006
1,608,4.14792e+006
1,609,4.15199e+006
1,610,4.15531e+006
1,611,4.15829e+006
1,612,4.16266e+006
1,613,4.16269e+006
1,614,4.16583e+006
1,615,4.16871e+006
1,616,4.16928e+006
1,617,4.17015e+006
1,618,4.17503e+006
1,619,4.17373e+006
1,620,4.17525e+006
1,621,4.17786e+006
1,622,4.17939e+006
1,623,4.17933e+006
1,624,4.1796e+006
1,625,4.18038e+006
1,626,4.17882e+006
1,627,4.18197e+006
1,628,4.17882e+006
1,629,4.17998e+006
1,630,4.17608e+006
1,631,4.17693e+006
1,632,4.17423e+006
1,633,4.17214e+006
1,634,4.17249e+006
1,635,4.16938e+006
1,636,4.16973e+006
1,637,4.16613e+006
1,638,4.16264e+006
1,639,4.16135e+006
1,640,4.15789e+006
1,641,4.15357e+006
1,642,4.14887e+006
1,643,4.14756e+006
1,644,4.14565e+006
1,645,4.14133e+006
1,646,4.13888e+006
1,647,4.13686e+006
1,648,4.12884e+006
1,649,4.12267e+006
1,650,4.11858e+006
1,651,4.11536e+006
1,652,4.11034e+006
1,653,4.10511e+006
1,654,4.09761e+006
1,655,4.09137e+006
1,656,4.08635e+006
1,657,4.08034e+006
1,658,4.07356e+006
1,659,4.06599e+006
1,660,4.06156e+006
1,661,4.05225e+006
1,662,4.0465e+006
1,663,4.03636e+006
1,664,4.03128e+006
1,665,4.0225e+006
1,666,4.01329e+006
1,667,4.00365e+006
1,668,3.99453e+006
1,669,3.98607e+006
1,670,3.97727e+006
1,671,3.96603e+006
1,672,3.95781e+006
1,673,3.94831e+006
1,674,3.94042e+006
1,675,3.92942e+006
1,676,3.92015e+006
1,677,3.90993e+006
1,678,3.89841e+006
1,679,3.88706e+006
1,680,3.87704e+006
1,681,3.86449e+006
1,682,3.85283e+006
1,683,3.84029e+006
1,684,3.82631e+006
1,685,3.81842e+006
1,686,3.80377e+006
1,687,3.79097e+006
1,688,3.77907e+006
1,689,3.76326e+006
1,690,3.7515e+006
1,691,3.73718e+006
1,692,3.72e+006
1,693,3.70568e+006
1,694,3.68775e+006
1,695,3.67591e+006
1,696,3.65843e+006
1,697,3.6438e+006
1,698,3.62658e+006
1,699,3.6089e+006
1,700,3.59081e+006
1,701,3.57504e+006
1,702,3.55664e+006
1,703,3.53581e+006
1,704,3.5194e+006
1,705,3.49836e+006
1,706,3.4783e+006
1,707,3.46292e+006
1,708,3.44075e+006
1,709,3.42098e+006
1,710,3.4012e+006
1,711,3.37878e+006
1,712,3.35684e+006
1,713,3.3389e+006
1,714,3.32102e+006
1,715,3.30054e+006
1,716,3.28141e+006
1,717,3.25572e+006
1,718,3.23755e+006
1,719,3.21725e+006
1,720,3.19893e+006
1,721,3.17894e+006
1,722,3.15969e+006
1,723,3.14042e+006
1,724,3.11767e+006
1,725,3.10089e+006
1,726,3.08433e+006
1,727,3.06389e+006
1,728,3.04682e+006
1,729,3.02877e+006
1,730,3.00739e+006
1,731,2.98966e+006
1,732,2.97247e+006
1,733,2.95319e+006
1,734,2.93627e+006
1,735,2.91739e+006
1,736,2.89898e+006
1,737,2.87965e+006
1,738,2.86129e+006
1,739,2.84336e+006
1,740,2.82575e+006
1,741,2.80915e+006
1,742,2.79246e+006
1,743,2.77274e+006
1,744,2.75589e+006
1,745,2.7359e+006
1,746,2.72089e+006
1,747,2.70266e+006
1,748,2.68452e+006
1,749,2.66739e+006
1,750,2.65358e+006
1,751,2.63431e+006
1,752,2.61898e+006
1,753,2.60101e+006
1,754,2.58721e+006
1,755,2.57125e+006
1,756,2.55537e+006
1,757,2.5384e+006
1,758,2.52638e+006
1,759,2.50944e+006
1,760,2.49435e+006
1,761,2.48096e+006
1,762,2.46462e+006
1,763,2.44759e+006
1,764,2.4345e+006
1,765,2.42085e+006
1,766,2.40528e+006
1,767,2.39254e+006
1,768,2.37647e+006
1,769,2.36042e+006
1,770,2.34548e+006
1,771,2.33315e+006
1,772,2.31926e+006
1,773,2.3038e+006
1,774,2.29061e+006
1,775,2.28052e+006
1,776,2.26612e+006
1,777,2.25351e+006
1,778,2.24062e+006
1,779,2.22756e+006
1,780,2.21462e+006
1,781,2.20228e+006
1,782,2.1906e+006
1,783,2.18006e+006
1,784,2.1685e+006
1,785,2.154e+006
1,786,2.1438e+006
1,787,2.13129e+006
1,788,2.12053e+006
1,789,2.111e+006
1,790,2.09758e+006
1,791,2.08946e+006
1,792,2.07923e+006
1,793,2.0676e+006
1,794,2.05582e+006
1,795,2.0446e+006
1,796,2.03687e+006
1,797,2.02648e+006
1,798,2.01674e+006
1,799,2.00695e+006
1,800,2.00014e+006
1,801,1.98977e+006
1,802,1.97861e+006
1,803,1.96926e+006
1,804,1.95882e+006
1,805,1.94756e+006
1,806,1.93902e+006
1,807,1.92741e+006
1,808,1.91829e+006
1,809,1.9088e+006
1,810,1.89921e+006
1,811,1.89061e+006
1,812,1.88074e+006
1,813,1.87055e+006
1,814,1.86003e+006
1,815,1.85254e+006
1,816,1.84317e+006
1,817,1.83526e+006
1,818,1.827e+006
1,819,1.81777e+006
1,820,1.8108e+006
1,821,1.80298e+006
1,822,1.79526e+006
1,823,1.78993e+006
1,824,1.78143e+006
1,825,1.77414e+006
1,826,1.76836e+006
1,827,1.75916e+006
1,828,1.75289e+006
1,829,1.74284e+006
1,830,1.73462e+006
1,831,1.72849e+006
1,832,1.71871e+006
1,833,1.71135e+006
1,834,1.70379e+006
1,835,1.69569e+006
1,836,1.68757e+006
1,837,1.6794e+006
1,838,1.67208e+006
1,839,1.66615e+006
1,840,1.65995e+006
1,841,1.65203e+006
1,842,1.64659e+006
1,843,1.6376e+006
1,844,1.63101e+006
1,845,1.62506e+006
1,846,1.61611e+006
1,847,1.60933e+006
1,848,1.60224e+006
1,849,1.59733e+006
1,850,1.59262e+006
1,851,1.58513e+006
1,852,1.57998e+006
1,853,1.57354e+006
1,854,1.56933e+006
1,855,1.56264e+006
1,856,1.55686e+006
1,857,1.55076e+006
1,858,1.54566e+006
1,859,1.54032e+006
1,860,1.53289e+006
1,861,1.52818e+006
1,862,1.52265e+006
1,863,1.51907e+006
1,864,1.51461e+006
1,865,1.50911e+006
1,866,1.50404e+006
1,867,1.49848e+006
1,868,1.49429e+006
1,869,1.48908e+006
1,870,1.48479e+006
1,871,1.47993e+006
1,872,1.47256e+006
1,873,1.46824e+006
1,874,1.4627e+006
1,875,1.45858e+006
1,876,1.45513e+006
1,877,1.45067e+006
1,878,1.4465e+006
1,879,1.44009e+006
1,880,1.43743e+006
1,881,1.43081e+006
1,882,1.42758e+006
1,883,1.4229e+006
1,884,1.41851e+006
1,885,1.41497e+006
1,886,1.41123e+006
1,887,1.40659e+006
1,888,1.40421e+006
1,889,1.39996e+006
1,890,1.39564e+006
1,891,1.393e+006
1,892,1.3893e+006
1,893,1.38482e+006
1,894,1.38039e+006
1,895,1.37689e+006
1,896,1.37164e+006
1,897,1.36697e+006
1,898,1.3661e+006
1,899,1.36202e+006
1,900,1.35884e+006
1,901,1.35653e+006
1,902,1.35253e+006
1,903,1.34969e+006
1,904,1.34695e+006
1,905,1.34451e+006
1,906,1.34176e+006
1,907,1.33952e+006
1,908,1.33678e+006
1,909,1.33626e+006
1,910,1.33432e+006
1,911,1.33377e+006
1,912,1.333e+006
1,913,1.33256e+006
1,914,1.33238e+006
1,915,1.33202e+006
1,916,1.33162e+006
1,917,1.32889e+006
1,918,1.32605e+006
1,919,1.32223e+006
1,920,1.31766e+006
1,921,1.316e+006
1,922,1.31001e+006
1,923,1.30537e+006
1,924,1.30134e+006
1,925,1.29769e+006
1,926,1.29388e+006
1,927,1.29067e+006
1,928,1.28714e+006
1,929,1.28324e+006
1,930,1.27921e+006
1,931,1.27753e+006
1,932,1.2729e+006
1,933,1.26924e+006
1,934,1.26409e+006
1,935,1.25978e+006
1,936,1.25649e+006
1,937,1.25362e+006
1,938,1.25162e+006
1,939,1.24805e+006
1,940,1.24439e+006
1,941,1.24088e+006
1,942,1.23774e+006
1,943,1.23435e+006
1,944,1.23203e+006
1,945,1.22831e+006
1,946,1.22709e+006
1,947,1.22537e+006
1,948,1.2206e+006
1,949,1.21946e+006
1,950,1.21757e+006
1,951,1.21543e+006
1,952,1.21254e+006
1,953,1.21114e+006
1,954,1.20896e+006
1,955,1.20715e+006
1,956,1.20369e+006
1,957,1.20196e+006
1,958,1.20011e+006
1,959,1.19934e+006
1,960,1.19632e+006
1,961,1.19506e+006
1,962,1.1929e+006
1,963,1.19112e+006
1,964,1.18982e+006
1,965,1.1886e+006
1,966,1.18652e+006
1,967,1.1843e+006
1,968,1.18407e+006
1,969,1.1811e+006
1,970,1.1805e+006
1,971,1.17779e+006
1,972,1.17612e+006
1,973,1.17392e+006
1,974,1.17235e+006
1,975,1.17002e+006
1,976,1.16833e+006
1,977,1.16746e+006
1,978,1.16505e+006
1,979,1.16496e+006
1,980,1.16365e+006
1,981,1.16147e+006
1,982,1.16049e+006
1,983,1.15845e+006
1,984,1.15824e+006
1,985,1.15619e+006
1,986,1.15597e+006
1,987,1.15283e+006
1,988,1.15148e+006
1,989,1.14832e+006
1,990,1.15059e+006
1,991,1.14904e+006
1,992,1.14634e+006
1,993,1.145e+006
1,994,1.14455e+006
1,995,1.14314e+006
1,996,1.14213e+006
1,997,1.14074e+006
1,998,1.13791e+006
1,999,1.13672e+006
1,1000,1.13461e+006
1,1001,1.13395e+006
1,1002,1.13335e+006
1,1003,1.13267e+006
1,1004,1.13048e+006
1,1005,1.13047e+006
1,1006,1.12799e+006
1,1007,1.12743e+006
1,1008,1.12641e+006
1,1009,1.12593e+006
1,1010,1.12493e+006
1,1011,1.12311e+006
1,1012,1.12196e+006
1,1013,1.12112e+006
1,1014,1.12045e+006
1,1015,1.11865e+006
1,1016,1.11751e+006
1,1017,1.11762e+006
1,1018,1.11557e+006
1,1019,1.11483e+006
1,1020,1.11342e+006
1,1021,1.11261e+006
1,1022,1.11208e+006
1,1023,1.11052e+006
1,1024,1.10903e+006
1,1025,1.10815e+006
1,1026,1.10638e+006
1,1027,1.1055e+006
1,1028,1.10474e+006
1,1029,1.10389e+006
1,1030,1.10269e+006
1,1031,1.1022e+006
1,1032,1.10204e+006
1,1033,1.10065e+006
1,1034,1.10077e+006
1,1035,1.09804e+006
1,1036,1.0982e+006
1,1037,1.09753e+006
1,1038,1.09647e+006
1,1039,1.09379e+006
1,1040,1.0948e+006
1,1041,1.0932e+006
1,1042,1.09329e+006
1,1043,1.09215e+006
1,1044,1.09106e+006
1,1045,1.08942e+006
1,1046,1.09053e+006
1,1047,1.08968e+006
1,1048,1.08943e+006
1,1049,1.08823e+006
1,1050,1.08789e+006
1,1051,1.08617e+006
1,1052,1.08498e+006
1,1053,1.08533e+006
1,1054,1.08473e+006
1,1055,1.0842e+006
1,1056,1.08412e+006
1,1057,1.08537e+006
1,1058,1.08428e+006
1,1059,1.08391e+006
1,1060,1.08486e+006
1,1061,1.08536e+006
1,1062,1.08638e+006
1,1063,1.08918e+006
1,1064,1.09145e+006
1,1065,1.09474e+006
1,1066,1.09736e+006
1,1067,1.09926e+006
1,1068,1.10207e+006
1,1069,1.10335e+006
1,1070,1.10446e+006
1,1071,1.10327e+006
1,1072,1.10255e+006
1,1073,1.09774e+006
1,1074,1.09374e+006
1,1075,1.08643e+006
1,1076,1.08067e+006
1,1077,1.07508e+006
1,1078,1.07092e+006
1,1079,1.06681e+006
1,1080,1.06265e+006
1,1081,1.06054e+006
1,1082,1.05774e+006
1,1083,1.0555e+006
1,1084,1.05429e+006
1,1085,1.05199e+006
1,1086,1.05013e+006
1,1087,1.04906e+006
1,1088,1.04816e+006
1,1089,1.04678e+006
1,1090,1.04535e+006
1,1091,1.04348e+006
1,1092,1.04315e+006
1,1093,1.04227e+006
1,1094,1.03999e+006
1,1095,1.03988e+006
1,1096,1.03883e+006
1,1097,1.03826e+006
1,1098,1.03687e+006
1,1099,1.0352e+006
1,1100,1.03371e+006
1,1101,1.03201e+006
1,1102,1.03139e+006
1,1103,1.03001e+006
1,1104,1.02997e+006
1,1105,1.02724e+006
1,1106,1.02607e+006
1,1107,1.02492e+006
1,1108,1.02487e+006
1,1109,1.02304e+006
1,1110,1.02177e+006
1,1111,1.02165e+006
1,1112,1.02103e+006
1,1113,1.0187e+006
1,1114,1.01837e+006
1,1115,1.01698e+006
1,1116,1.01604e+006
1,1117,1.01434e+006
1,1118,1.01391e+006
1,1119,1.01265e+006
1,1120,1.01168e+006
1,1121,1.01017e+006
1,1122,1.01018e+006
1,1123,1.00981e+006
1,1124,1.00833e+006
1,1125,1.00792e+006
1,1126,1.00594e+006
1,1127,1.00514e+006
1,1128,1.00419e+006
1,1129,1.00452e+006
1,1130,1.00379e+006
1,1131,1.00221e+006
1,1132,1.0009e+006
1,1133,1.00153e+006
1,1134,1.00077e+006
1,1135,1.00065e+006
1,1136,1.00003e+006
1,1137,997749
1,1138,996824
1,1139,995268
1,1140,993496
1,1141,992443
1,1142,991315
1,1143,989721
1,1144,988415
1,1145,986083
1,1146,984516
1,1147,982398
1,1148,981770
1,1149,979613
1,1150,979573
1,1151,976497
1,1152,974023
1,1153,972661
1,1154,972058
1,1155,970475
1,1156,968553
1,1157,968302
1,1158,967281
1,1159,965830
1,1160,965393
1,1161,962449
1,1162,961563
1,1163,960583
1,1164,959687
1,1165,957811
1,1166,957664
1,1167,957184
1,1168,955226
1,1169,953915
1,1170,951597
1,1171,951033
1,1172,950292
1,1173,949059
1,1174,948354
1,1175,946433
1,1176,945084
1,1177,944351
1,1178,942742
1,1179,940243
1,1180,938476
1,1181,937467
1,1182,936719
1,1183,935869
1,1184,934757
1,1185,933049
1,1186,931716
1,1187,930674
1,1188,929438
1,1189,929259
1,1190,927887
1,1191,926302
1,1192,924412
1,1193,923471
1,1194,922497
1,1195,920914
1,1196,919773
1,1197,918811
1,1198,917563
1,1199,916380
1,1200,914849
1,1201,913127
1,1202,912375
1,1203,911448
1,1204,910633
1,1205,908287
1,1206,906282
1,1207,905927
1,1208,905028
1,1209,902946
1,1210,902208
1,1211,900504
1,1212,899603
1,1213,897468
1,1214,896216
1,1215,895258
1,1216,894529
1,1217,893620
1,1218,892075
1,1219,890758
1,1220,888764
1,1221,888517
1,1222,885743
1,1223,885557
1,1224,884117
1,1225,882358
1,1226,881110
1,1227,878655
1,1228,877343
1,1229,875387
1,1230,873470
1,1231,871918
1,1232,869730
1,1233,868829
1,1234,866333
1,1235,865970
1,1236,864007
1,1237,862158
1,1238,861259
1,1239,858898
1,1240,855972
1,1241,854875
1,1242,851804
1,1243,850234
1,1244,847965
1,1245,845666
1,1246,842438
1,1247,841490
1,1248,839561
1,1249,836603
1,1250,833794
1,1251,832156
1,1252,829431
1,1253,826400
1,1254,823387
1,1255,821436
1,1256,818059
1,1257,816038
1,1258,814051
1,1259,810003
1,1260,807755
1,1261,806670
1,1262,803389
1,1263,801682
1,1264,798189
1,1265,795480
1,1266,793596
1,1267,790145
1,1268,787975
1,1269,784190
1,1270,780947
1,1271,778176
1,1272,775204
1,1273,771059
1,1274,767504
1,1275,764620
1,1276,760336
1,1277,757131
1,1278,753511
1,1279,749929
1,1280,745603
1,1281,741766
1,1282,737561
1,1283,733879
1,1284,730652
1,1285,726236
1,1286,722432
1,1287,718716
1,1288,714749
1,1289,711189
1,1290,707876
1,1291,703780
1,1292,698810
1,1293,695437
1,1294,691385
1,1295,687151
1,1296,683156
1,1297,679867
1,1298,675714
1,1299,671938
1,1300,668454
1,1301,664525
1,1302,659291
1,1303,655746
1,1304,652089
1,1305,648540
1,1306,644279
1,1307,639129
1,1308,634656
1,1309,631707
1,1310,627523
1,1311,623154
1,1312,619397
1,1313,615268
1,1314,611362
1,1315,606853
1,1316,603574
1,1317,599317
1,1318,595151
1,1319,592037
1,1320,588250
1,1321,583900
1,1322,579895
1,1323,576360
1,1324,571604
1,1325,567548
1,1326,563374
1,1327,559996
1,1328,556007
1,1329,551671
1,1330,548420
1,1331,544008
1,1332,540427
1,1333,535551
1,1334,532518
1,1335,527816
1,1336,524076
1,1337,520549
1,1338,516860
1,1339,512224
1,1340,510216
