734.547	1483124
734.465	1487378
734.383	1491085
734.301	1494732
734.219	1496710
734.137	1500033
734.056	1503873
733.974	1507761
733.892	1511178
733.810	1513697
733.728	1517542
733.646	1520534
733.564	1523429
733.483	1527000
733.401	1530283
733.319	1533295
733.237	1536642
733.155	1539855
733.073	1543032
732.991	1546884
732.909	1549725
732.828	1552986
732.746	1555614
732.664	1558451
732.582	1561264
732.500	1564327
732.418	1567004
732.336	1570415
732.255	1573061
732.173	1576151
732.091	1578840
732.009	1581794
731.927	1584420
731.845	1587679
731.763	1590253
731.682	1594390
731.600	1596371
731.518	1598362
731.436	1601527
731.354	1604964
731.272	1606673
731.190	1609800
731.108	1612087
731.027	1614505
730.945	1616451
730.863	1619795
730.781	1621829
730.699	1625101
730.617	1626580
730.535	1629229
730.454	1631577
730.372	1633685
730.290	1636679
730.208	1638262
730.126	1640842
730.044	1642697
729.962	1644666
729.880	1646212
729.799	1648856
729.717	1651790
729.635	1654197
729.553	1656084
729.471	1658555
729.389	1660730
729.307	1661605
729.226	1663821
729.144	1665882
729.062	1667073
728.980	1669698
728.898	1670945
728.816	1673465
728.734	1674749
728.653	1677586
728.571	1679106
728.489	1681096
728.407	1682212
728.325	1684335
728.243	1687199
728.161	1688324
728.079	1689560
727.998	1690799
727.916	1692912
727.834	1694619
727.752	1696345
727.670	1697716
727.588	1699805
727.506	1701757
727.425	1702358
727.343	1704752
727.261	1706251
727.179	1707725
727.097	1708375
727.015	1710177
726.933	1711970
726.852	1712596
726.770	1714368
726.688	1715619
726.606	1717754
726.524	1717796
726.442	1720073
726.360	1721569
726.278	1723174
726.197	1724399
726.115	1725935
726.033	1727712
725.951	1728055
725.869	1730680
725.787	1730607
725.705	1732105
725.624	1733939
725.542	1735346
725.460	1737139
725.378	1737440
725.296	1739223
725.214	1741819
725.132	1742411
725.050	1744196
724.969	1746041
724.887	1746628
724.805	1747308
724.723	1748526
724.641	1750608
724.559	1751703
724.477	1752608
724.396	1754409
724.314	1755451
724.232	1755882
724.150	1757581
724.068	1759465
723.986	1760331
723.904	1762447
723.823	1763396
723.741	1764880
723.659	1766070
723.577	1766975
723.495	1769468
723.413	1770261
723.331	1771945
723.249	1772545
723.168	1774232
723.086	1774948
723.004	1776681
722.922	1778276
722.840	1779768
722.758	1780626
722.676	1781804
722.595	1783347
722.513	1784616
722.431	1786087
722.349	1788106
722.267	1788517
722.185	1789983
722.103	1791349
722.021	1792452
721.940	1794523
721.858	1795431
721.776	1797242
721.694	1798287
721.612	1798974
721.530	1800924
721.448	1802114
721.367	1803452
721.285	1804799
721.203	1806929
721.121	1808131
721.039	1809425
720.957	1810882
720.875	1812501
720.794	1813357
720.712	1814608
720.630	1815447
720.548	1817515
720.466	1819057
720.384	1820020
720.302	1822250
720.220	1822934
720.139	1824696
720.057	1825159
719.975	1826837
719.893	1827404
719.811	1829412
719.729	1830985
719.647	1831776
719.566	1832959
719.484	1834671
719.402	1835465
719.320	1835992
719.238	1838303
719.156	1839528
719.074	1841595
718.992	1844055
718.911	1843779
718.829	1846661
718.747	1846984
718.665	1849391
718.583	1850747
718.501	1851600
718.419	1853046
718.338	1854007
718.256	1854754
718.174	1856993
718.092	1857338
718.010	1859305
717.928	1860026
717.846	1862094
717.765	1863685
717.683	1864422
717.601	1866114
717.519	1867227
717.437	1867036
717.355	1869694
717.273	1870799
717.191	1871267
717.110	1872849
717.028	1874765
716.946	1876933
716.864	1878236
716.782	1879361
716.700	1880385
716.618	1881514
716.537	1883492
716.455	1884296
716.373	1885711
716.291	1886004
716.209	1888056
716.127	1889194
716.045	1891211
715.964	1891590
715.882	1893511
715.800	1894254
715.718	1895468
715.636	1897707
715.554	1898383
715.472	1898979
715.390	1900660
715.309	1902825
715.227	1903984
715.145	1905376
715.063	1906390
714.981	1908821
714.899	1909953
714.817	1911293
714.736	1912846
714.654	1914906
714.572	1915707
714.490	1917132
714.408	1916641
714.326	1919550
714.244	1921064
714.162	1921970
714.081	1923500
713.999	1923894
713.917	1925395
713.835	1926674
713.753	1927877
713.671	1929586
713.589	1930078
713.508	1931397
713.426	1933066
713.344	1933465
713.262	1934894
713.180	1937177
713.098	1938459
713.016	1939584
712.935	1940854
712.853	1943011
712.771	1944435
712.689	1944376
712.607	1946361
712.525	1947317
712.443	1948195
712.361	1950260
712.280	1951799
712.198	1952747
712.116	1954133
712.034	1956131
711.952	1957188
711.870	1957849
711.788	1959058
711.707	1960717
711.625	1961282
711.543	1962845
711.461	1964260
711.379	1965118
711.297	1966651
711.215	1967297
711.133	1969218
711.052	1970462
710.970	1970394
710.888	1972112
710.806	1973841
710.724	1976290
710.642	1978080
710.560	1978366
710.479	1980596
710.397	1980492
710.315	1981249
710.233	1982599
710.151	1983741
710.069	1985484
709.987	1986180
709.906	1987770
709.824	1989954
709.742	1990931
709.660	1991533
709.578	1993879
709.496	1994340
709.414	1995182
709.332	1996682
709.251	1997650
709.169	1998060
709.087	1999378
709.005	2000853
708.923	2002666
708.841	2003959
708.759	2004286
708.678	2005597
708.596	2007043
708.514	2008707
708.432	2009299
708.350	2010363
708.268	2012132
708.186	2012940
708.104	2014421
708.023	2015915
707.941	2016579
707.859	2018058
707.777	2019735
707.695	2021333
707.613	2021034
707.531	2023210
707.450	2023751
707.368	2025074
707.286	2025989
707.204	2026766
707.122	2028954
707.040	2029328
706.958	2030189
706.877	2031141
706.795	2032058
706.713	2031911
706.631	2035140
706.549	2034687
706.467	2036703
706.385	2037505
706.303	2039732
706.222	2040545
706.140	2040593
706.058	2041439
705.976	2043665
705.894	2045759
705.812	2045676
705.730	2046239
705.649	2047814
705.567	2048976
705.485	2049174
705.403	2051019
705.321	2050789
705.239	2051755
705.157	2053014
705.076	2054180
704.994	2056394
704.912	2055809
704.830	2056283
704.748	2057239
704.666	2058555
704.584	2060893
704.502	2061633
704.421	2062660
704.339	2063502
704.257	2064480
704.175	2065679
704.093	2066844
704.011	2066365
703.929	2068435
703.848	2068958
703.766	2069828
703.684	2070731
703.602	2072536
703.520	2073822
703.438	2074569
703.356	2075235
703.274	2075574
703.193	2076082
703.111	2077271
703.029	2078153
702.947	2078618
702.865	2078748
702.783	2080139
702.701	2082483
702.620	2081736
702.538	2083374
702.456	2083289
702.374	2084858
702.292	2085894
702.210	2087171
702.128	2088034
702.047	2088825
701.965	2088796
701.883	2091007
701.801	2090448
701.719	2091813
701.637	2094285
701.555	2093904
701.473	2094615
701.392	2094754
701.310	2096175
701.228	2097135
701.146	2097169
701.064	2098966
700.982	2099631
700.900	2099750
700.819	2100866
700.737	2101554
700.655	2102919
700.573	2104320
700.491	2103301
700.409	2104820
700.327	2107253
700.245	2108564
700.164	2108490
700.082	2109274
700.000	2110694
699.918	2112551
699.836	2112079
699.754	2112694
699.672	2112989
699.591	2113318
699.509	2114947
699.427	2114986
699.345	2115721
699.263	2116437
699.181	2117705
699.099	2118463
699.018	2119843
698.936	2119830
698.854	2120458
698.772	2120974
698.690	2123033
698.608	2123270
698.526	2123669
698.444	2123429
698.363	2124837
698.281	2124557
698.199	2126344
698.117	2127165
698.035	2126344
697.953	2127610
697.871	2128931
697.790	2129912
697.708	2130439
697.626	2131143
697.544	2131982
697.462	2132643
697.380	2132111
697.298	2133589
697.216	2133908
697.135	2134929
697.053	2135999
696.971	2136184
696.889	2137370
696.807	2137838
696.725	2138118
696.643	2138590
696.562	2140091
696.480	2139656
696.398	2140943
696.316	2141216
696.234	2143589
696.152	2143515
696.070	2144528
695.989	2144866
695.907	2145399
695.825	2144699
695.743	2145127
695.661	2146155
695.579	2145766
695.497	2146337
695.415	2146002
695.334	2146389
695.252	2146374
695.170	2148364
695.088	2147826
695.006	2148327
694.924	2148446
694.842	2149257
694.761	2149751
694.679	2149847
694.597	2150662
694.515	2150924
694.433	2150826
694.351	2151244
694.269	2150493
694.188	2151231
694.106	2152772
694.024	2153781
693.942	2153809
693.860	2154093
693.778	2155608
693.696	2154847
693.614	2154848
693.533	2155990
693.451	2155632
693.369	2156517
693.287	2156329
693.205	2155942
693.123	2157733
693.041	2157416
692.960	2157658
692.878	2158257
692.796	2157887
692.714	2157861
692.632	2158729
692.550	2158356
692.468	2158555
692.386	2158445
692.305	2158491
692.223	2159308
692.141	2159720
692.059	2159945
691.977	2159583
691.895	2160765
691.813	2161510
691.732	2161746
691.650	2162658
691.568	2162204
691.486	2162263
691.404	2162092
691.322	2162327
691.240	2163086
691.159	2162291
691.077	2162556
690.995	2162664
690.913	2163209
690.831	2163951
690.749	2162488
690.667	2164249
690.585	2163740
690.504	2163738
690.422	2164781
690.340	2163402
690.258	2164322
690.176	2164397
690.094	2164161
690.012	2163772
689.931	2164042
689.849	2165354
689.767	2166710
689.685	2167265
689.603	2166766
689.521	2167166
689.439	2167928
689.357	2166550
689.276	2166696
689.194	2167083
689.112	2167602
689.030	2166830
688.948	2167115
688.866	2167399
688.784	2166832
688.703	2167370
688.621	2166178
688.539	2166958
688.457	2165776
688.375	2166050
688.293	2166297
688.211	2166106
688.130	2167376
688.048	2166555
687.966	2166868
687.884	2166694
687.802	2166583
687.720	2168536
687.638	2167865
687.556	2167960
687.475	2168738
687.393	2167699
687.311	2168252
687.229	2167222
687.147	2168028
687.065	2168634
686.983	2168831
686.902	2168881
686.820	2167421
686.738	2167541
686.656	2166915
686.574	2167400
686.492	2166209
686.410	2166220
686.328	2166553
686.247	2167157
686.165	2166260
686.083	2165484
686.001	2166912
685.919	2166829
685.837	2165759
685.755	2166409
685.674	2165868
685.592	2166612
685.510	2164855
685.428	2164863
685.346	2164911
685.264	2164687
685.182	2163621
685.101	2164720
685.019	2164895
684.937	2164435
684.855	2163952
684.773	2163997
684.691	2163498
684.609	2162604
684.527	2163625
684.446	2162977
684.364	2162518
684.282	2161565
684.200	2161814
684.118	2161065
684.036	2160527
683.954	2160844
683.873	2160778
683.791	2159977
683.709	2160045
683.627	2160521
683.545	2160176
683.463	2160591
683.381	2160497
683.300	2160056
683.218	2159527
683.136	2157470
683.054	2157984
682.972	2158323
682.890	2158238
682.808	2157222
682.726	2157281
682.645	2156748
682.563	2156277
682.481	2156231
682.399	2155183
682.317	2155354
682.235	2155677
682.153	2154444
682.072	2153754
681.990	2153923
681.908	2153266
681.826	2152501
681.744	2152437
681.662	2151249
681.580	2151524
681.498	2150772
681.417	2151021
681.335	2150331
681.253	2150544
681.171	2149912
681.089	2149321
681.007	2148846
680.925	2149093
680.844	2146740
680.762	2147475
680.680	2147652
680.598	2147884
680.516	2145953
680.434	2145783
680.352	2146071
680.271	2145288
680.189	2143745
680.107	2143784
680.025	2142779
679.943	2142609
679.861	2141609
679.779	2141795
679.697	2141291
679.616	2140085
679.534	2139283
679.452	2139143
679.370	2138590
679.288	2138971
679.206	2139714
679.124	2138336
679.043	2137751
678.961	2137737
678.879	2137496
678.797	2136078
678.715	2136091
678.633	2136365
678.551	2134970
678.469	2134285
678.388	2133674
678.306	2132957
678.224	2132591
678.142	2132531
678.060	2131210
677.978	2130594
677.896	2130150
677.815	2129527
677.733	2128652
677.651	2128428
677.569	2127837
677.487	2127404
677.405	2125722
677.323	2126258
677.242	2126156
677.160	2125484
677.078	2124208
676.996	2125115
676.914	2124921
676.832	2122343
676.750	2121953
676.668	2121138
676.587	2120748
676.505	2119784
676.423	2118413
676.341	2117255
676.259	2116653
676.177	2114933
676.095	2114470
676.014	2113698
675.932	2112140
675.850	2113211
675.768	2111685
675.686	2111461
675.604	2110467
675.522	2110254
675.440	2109504
675.359	2108762
675.277	2107147
675.195	2107918
675.113	2107663
675.031	2107389
674.949	2105038
674.867	2104692
674.786	2103546
674.704	2103018
674.622	2101783
674.540	2099889
674.458	2098850
674.376	2098669
674.294	2098115
674.213	2097817
674.131	2096377
674.049	2095921
673.967	2094213
673.885	2093472
673.803	2091743
673.721	2091715
673.639	2091485
673.558	2090748
673.476	2089527
673.394	2087053
673.312	2085973
673.230	2085475
673.148	2084069
673.066	2083021
672.985	2083446
672.903	2082613
672.821	2082463
672.739	2080936
672.657	2080448
672.575	2077725
672.493	2076357
672.411	2074825
672.330	2074748
672.248	2074081
672.166	2073239
672.084	2072078
672.002	2071298
671.920	2069547
671.838	2068320
671.757	2067790
671.675	2067869
671.593	2066356
671.511	2064647
671.429	2063966
671.347	2061824
671.265	2060688
671.184	2060067
671.102	2059558
671.020	2059568
670.938	2058072
670.856	2056975
670.774	2056350
670.692	2055206
670.610	2054478
670.529	2053833
670.447	2052125
670.365	2051550
670.283	2050715
670.201	2049429
670.119	2048005
670.037	2047239
669.956	2045965
669.874	2044415
669.792	2044051
669.710	2042999
669.628	2040941
669.546	2040343
669.464	2039336
669.383	2038430
669.301	2035862
669.219	2035801
669.137	2034247
669.055	2032689
668.973	2031743
668.891	2031107
668.809	2030545
668.728	2029824
668.646	2028568
668.564	2029348
668.482	2026367
668.400	2026229
668.318	2025278
668.236	2023764
668.155	2022932
668.073	2020930
667.991	2019864
667.909	2019964
667.827	2017420
667.745	2017191
667.663	2016494
667.581	2015700
667.500	2014952
667.418	2015894
667.336	2013893
667.254	2013787
667.172	2013335
667.090	2011628
667.008	2011089
666.927	2008000
666.845	2005080
666.763	2003937
666.681	2003110
666.599	2000358
666.517	1999533
666.435	1997645
666.354	1995591
666.272	1995514
666.190	1993511
666.108	1992525
666.026	1991678
665.944	1989572
665.862	1987950
665.780	1986754
665.699	1985326
665.617	1984082
665.535	1982029
665.453	1981074
665.371	1979577
665.289	1978050
665.207	1976158
665.126	1974575
665.044	1974174
664.962	1972217
664.880	1969914
664.798	1969194
664.716	1967867
664.634	1967017
664.552	1966407
664.471	1965243
664.389	1963319
664.307	1962566
664.225	1961672
664.143	1959687
664.061	1957522
663.979	1957277
663.898	1955253
663.816	1953765
663.734	1952659
663.652	1951443
663.570	1950156
663.488	1948600
663.406	1947572
663.325	1945657
663.243	1945081
663.161	1943528
663.079	1941266
662.997	1940634
662.915	1938523
662.833	1937121
662.751	1935635
662.670	1934304
662.588	1934417
662.506	1931369
662.424	1931224
662.342	1929178
662.260	1929403
662.178	1926277
662.097	1924846
662.015	1923854
661.933	1923128
661.851	1921181
661.769	1920281
661.687	1917934
661.605	1916817
661.523	1914313
661.442	1914476
661.360	1911170
661.278	1909637
661.196	1908848
661.114	1906741
661.032	1904682
660.950	1903451
660.869	1902391
660.787	1900343
660.705	1899751
660.623	1897517
660.541	1896464
660.459	1896081
660.377	1895131
660.296	1893147
660.214	1891646
660.132	1890369
660.050	1888993
659.968	1886756
659.886	1885921
659.804	1884168
659.722	1882519
659.641	1881508
659.559	1879852
659.477	1877925
659.395	1877240
659.313	1875235
659.231	1872792
659.149	1871050
659.068	1869453
658.986	1868873
658.904	1867200
658.822	1865880
658.740	1865530
658.658	1862839
658.576	1860687
658.495	1860326
658.413	1859514
658.331	1857333
658.249	1856560
658.167	1853839
658.085	1853168
658.003	1850486
657.921	1849360
657.840	1848104
657.758	1845751
657.676	1845407
657.594	1843676
657.512	1841438
657.430	1839926
657.348	1839295
657.267	1836650
657.185	1835332
657.103	1833865
657.021	1831433
656.939	1830682
656.857	1829196
656.775	1827020
656.693	1825262
656.612	1824076
656.530	1822193
656.448	1820425
656.366	1820160
656.284	1818837
656.202	1817228
656.120	1815623
656.039	1813935
655.957	1813576
655.875	1810924
655.793	1809423
655.711	1807184
655.629	1805941
655.547	1803254
655.466	1802216
655.384	1800405
655.302	1798914
655.220	1796506
655.138	1795464
655.056	1794570
654.974	1792984
654.892	1790311
654.811	1788922
654.729	1786779
654.647	1785505
654.565	1783244
654.483	1781558
654.401	1780764
654.319	1778168
654.238	1776121
654.156	1775955
654.074	1774143
653.992	1772573
653.910	1771655
653.828	1768559
653.746	1766983
653.664	1766037
653.583	1764594
653.501	1763259
653.419	1761848
653.337	1761537
653.255	1760199
653.173	1758626
653.091	1758438
653.010	1758903
652.928	1759845
652.846	1762262
652.764	1766594
652.682	1773516
652.600	1783702
652.518	1796764
652.437	1808994
652.355	1817344
652.273	1821187
652.191	1820749
652.109	1818999
652.027	1814609
651.945	1808352
651.863	1802441
651.782	1794430
651.700	1788849
651.618	1783921
651.536	1779991
651.454	1774437
651.372	1767343
651.290	1761331
651.209	1756831
651.127	1752672
651.045	1747931
650.963	1743674
650.881	1738739
650.799	1733031
650.717	1728168
650.635	1724416
650.554	1719832
650.472	1716108
650.390	1713313
650.308	1707987
650.226	1704460
650.144	1701310
650.062	1698201
649.981	1695710
649.899	1693977
649.817	1691292
649.735	1688016
649.653	1686363
649.571	1684068
649.489	1681508
649.408	1679854
649.326	1677433
649.244	1674973
649.162	1672273
649.080	1670459
648.998	1668207
648.916	1667198
648.834	1664897
648.753	1663351
648.671	1659964
648.589	1658145
648.507	1655565
648.425	1653193
648.343	1651990
648.261	1650482
648.180	1649159
648.098	1646339
648.016	1644471
647.934	1642979
647.852	1641211
647.770	1639744
647.688	1637660
647.607	1635077
647.525	1633360
647.443	1631182
647.361	1628543
647.279	1626347
647.197	1624530
647.115	1622098
647.033	1619254
646.952	1617067
646.870	1615042
646.788	1612683
646.706	1610142
646.624	1607755
646.542	1606279
646.460	1604351
646.379	1602226
646.297	1599989
646.215	1597653
646.133	1594891
646.051	1592644
645.969	1591054
645.887	1588119
645.805	1587108
645.724	1585404
645.642	1583759
645.560	1581049
645.478	1577823
645.396	1574993
645.314	1571780
645.232	1569361
645.151	1565829
645.069	1562730
644.987	1562030
644.905	1559076
644.823	1557187
644.741	1554117
644.659	1551044
644.578	1547604
644.496	1543664
644.414	1538704
644.332	1534703
644.250	1531622
644.168	1528489
644.086	1526278
644.004	1523752
643.923	1520630
643.841	1516871
643.759	1512970
643.677	1508841
643.595	1502975
643.513	1498421
643.431	1493828
643.350	1490880
643.268	1489069
643.186	1486195
643.104	1483064
643.022	1479554
642.940	1473494
642.858	1466659
642.776	1458999
642.695	1452964
642.613	1447534
642.531	1444894
642.449	1443000
642.367	1441831
642.285	1439042
642.203	1434308
642.122	1427613
642.040	1417975
641.958	1407156
641.876	1397493
641.794	1389462
641.712	1383033
641.630	1380552
641.549	1378304
641.467	1374994
641.385	1370095
641.303	1362739
641.221	1351522
641.139	1340095
641.057	1330281
640.975	1321792
640.894	1317233
640.812	1315448
640.730	1315205
640.648	1313190
640.566	1307983
640.484	1299747
640.402	1287686
640.321	1274866
640.239	1263251
640.157	1254748
640.075	1248879
639.993	1247135
639.911	1246021
639.829	1243102
639.747	1236477
639.666	1226499
639.584	1212852
639.502	1198958
639.420	1185256
639.338	1175428
639.256	1168933
639.174	1164819
639.093	1161517
639.011	1156192
638.929	1148274
638.847	1136538
638.765	1121852
638.683	1107188
638.601	1093700
638.520	1083240
638.438	1075296
638.356	1069883
638.274	1064015
638.192	1057142
638.110	1048540
638.028	1038390
637.946	1027776
637.865	1018119
637.783	1010512
637.701	1005006
637.619	1000601
637.537	997006
637.455	993569
637.373	989526
637.292	986613
637.210	987797
637.128	995432
637.046	1005758
636.964	1013503
636.882	1016191
636.800	1013206
636.719	1002255
636.637	987296
636.555	974333
636.473	966899
636.391	962767
636.309	960125
636.227	959039
636.145	958487
636.064	958056
635.982	957861
635.900	957929
635.818	958391
635.736	957999
635.654	957910
635.572	957983
635.491	958041
635.409	958062
635.327	958347
635.245	958747
635.163	959294
635.081	959484
634.999	959628
634.917	959510
634.836	959545
634.754	959981
634.672	960329
634.590	960643
634.508	961029
634.426	961615
634.344	962139
634.263	962811
634.181	964329
634.099	965831
634.017	967293
633.935	968598
633.853	970273
633.771	972546
633.690	974138
633.608	975255
633.526	976329
633.444	976791
633.362	977185
633.280	977896
633.198	980387
633.116	983015
633.035	987281
632.953	993309
632.871	1000396
632.789	1009201
632.707	1018354
632.625	1024345
632.543	1029306
632.462	1037132
632.380	1046552
632.298	1060149
632.216	1077415
632.134	1093091
632.052	1103374
631.970	1105323
631.888	1099195
631.807	1094158
631.725	1095963
631.643	1099997
631.561	1110631
631.479	1130017
631.397	1153507
631.315	1176789
631.234	1199707
631.152	1218676
631.070	1233648
630.988	1245629
630.906	1260870
630.824	1286991
630.742	1321015
630.661	1368028
630.579	1445520
630.497	1607537
630.415	2040608
630.333	3850423
630.251	10709059
630.169	19389963
630.087	21393541
630.006	21009302
629.924	19275039
629.842	12564909
629.760	3873267
629.678	1724343
629.596	1378056
629.514	1294768
629.433	1262680
629.351	1241272
629.269	1224485
629.187	1217037
629.105	1207028
629.023	1201871
628.941	1189676
628.859	1175243
628.778	1157945
628.696	1141309
628.614	1124089
628.532	1110257
628.450	1102115
628.368	1097569
628.286	1094727
628.205	1093652
628.123	1094079
628.041	1094514
627.959	1092832
627.877	1090619
627.795	1088338
627.713	1086692
627.632	1086853
627.550	1087807
627.468	1089655
627.386	1092136
627.304	1093246
627.222	1092660
627.140	1092064
627.058	1091003
626.977	1088991
626.895	1086162
626.813	1083425
626.731	1079947
626.649	1076106
626.567	1072689
626.485	1069831
626.404	1067507
626.322	1065190
626.240	1062274
626.158	1060075
626.076	1057354
625.994	1054557
625.912	1052283
625.831	1050289
625.749	1049151
625.667	1048259
625.585	1047920
625.503	1047931
625.421	1047319
625.339	1046472
625.257	1045007
625.176	1042931
625.094	1041670
625.012	1039225
624.930	1041930
